ECG Amplitude (mV)
-2.37e-08
-3.7000003e-08
1.91e-08
1.965e-07
4.498e-07
6.763e-07
8.781e-07
1.0792e-06
1.1519999e-06
9.251e-07
4.6200006e-07
6.9399995e-08
-4.77e-08
1.1e-09
4.6e-09
-6.37e-08
-8.960001e-08
-5.7999998e-08
-3.8099998e-08
-5.3400008e-08
-7.36e-08
-8.24e-08
-7.74e-08
-6.37e-08
-4.9600004e-08
-4.4599997e-08
-5.3e-08
-6.07e-08
-4.73e-08
-2.1400004e-08
-1.9e-09
7.1999997e-09
2.37e-08
5.5700003e-08
8.54e-08
9.380001e-08
9.31e-08
1.0409999e-07
1.339e-07
1.659e-07
1.747e-07
1.595e-07
1.545e-07
1.945e-07
2.529e-07
2.6589998e-07
2.3730001e-07
2.3800003e-07
3.0980001e-07
4.0089998e-07
4.3790004e-07
4.1499996e-07
3.788e-07
3.5440002e-07
3.2650001e-07
2.846e-07
2.388e-07
1.9040003e-07
1.3160002e-07
6.7100004e-08
-1.5e-09
-7.55e-08
-1.3580001e-07
-1.5909998e-07
-1.472e-07
-1.392e-07
-1.6900002e-07
-2.2619999e-07
-2.712e-07
-2.789e-07
-2.51e-07
-2.151e-07
-1.961e-07
-2.1170001e-07
-2.4300002e-07
-2.495e-07
-2.1480001e-07
-1.6670002e-07
-1.4380001e-07
-1.5909998e-07
-1.8080003e-07
-1.8310001e-07
-1.6670002e-07
-1.503e-07
-1.45e-07
-1.472e-07
-1.492e-07
-1.453e-07
-1.377e-07
-1.305e-07
-1.282e-07
-1.282e-07
-1.213e-07
-1.038e-07
-8.39e-08
-8.0899994e-08
-1.02600005e-07
-1.263e-07
-1.282e-07
-1.11400006e-07
-9.77e-08
-1.0069999e-07
-1.08e-07
-1.0760001e-07
-9.77e-08
-8.74e-08
-8.39e-08
-9.23e-08
-1.0109999e-07
-9.0400015e-08
-6.64e-08
-5.6499996e-08
-6.8300004e-08
-8.93e-08
-9.31e-08
-8.01e-08
-6.6e-08
-6.1e-08
-5.7599998e-08
-4.81e-08
-3.74e-08
-3.51e-08
-4.4300002e-08
-5.53e-08
-5.3e-08
-3.93e-08
-3.4e-08
-4.23e-08
-5.53e-08
-6.48e-08
-7.6700005e-08
-8.74e-08
-9.08e-08
-7.93e-08
-6.29e-08
-6.26e-08
-7.93e-08
-9.88e-08
-1.038e-07
-9.08e-08
-7.209999e-08
-5.3800004e-08
-4.27e-08
-2.4800002e-08
6.9e-08
2.689e-07
5.0849997e-07
7.339e-07
9.0030005e-07
9.0070006e-07
6.4470004e-07
2.323e-07
-8.77e-08
-1.553e-07
-6.8300004e-08
-2.4e-08
-7.71e-08
-1.255e-07
-1.335e-07
-1.301e-07
-1.3619999e-07
-1.511e-07
-1.53e-07
-1.14100004e-07
-5.3400008e-08
-2.7799999e-08
-6.07e-08
-1.091e-07
-1.11400006e-07
-6.52e-08
-1.79e-08
-8e-09
-3.0899997e-08
-5.3400008e-08
-5.42e-08
-4.12e-08
-2.82e-08
-1.6e-08
9.9e-09
5.3e-08
9.54e-08
1.2359999e-07
1.3889999e-07
1.492e-07
1.511e-07
1.53e-07
1.751e-07
2.235e-07
2.7349998e-07
2.983e-07
2.9600002e-07
2.907e-07
3.0019999e-07
3.151e-07
3.136e-07
2.857e-07
2.388e-07
1.93e-07
1.553e-07
1.122e-07
4.77e-08
-2.86e-08
-8.7000004e-08
-1.15199995e-07
-1.3580001e-07
-1.698e-07
-2.102e-07
-2.4189998e-07
-2.6249998e-07
-2.762e-07
-2.808e-07
-2.7389999e-07
-2.6249998e-07
-2.5749998e-07
-2.529e-07
-2.426e-07
-2.3569999e-07
-2.323e-07
-2.1480001e-07
-1.896e-07
-1.9e-07
-2.2660001e-07
-2.598e-07
-2.46e-07
-1.968e-07
-1.675e-07
-1.8040001e-07
-2.0479999e-07
-2.1710001e-07
-2.1860002e-07
-2.1320001e-07
-1.965e-07
-1.774e-07
-1.717e-07
-1.7130002e-07
-1.568e-07
-1.3160002e-07
-1.301e-07
-1.579e-07
-1.8499999e-07
-1.926e-07
-1.9380002e-07
-1.9040003e-07
-1.2169998e-07
5.72e-08
3.151e-07
5.9359996e-07
7.7100003e-07
6.702e-07
2.64e-07
-2.029e-07
-4.1499996e-07
-3.0669997e-07
-9.42e-08
-1.1800001e-08
-6.7900004e-08
-1.24e-07
-1.10200006e-07
-5.7999998e-08
-2.17e-08
-4.12e-08
-9.61e-08
-1.282e-07
-1.0760001e-07
-5.7599998e-08
-1.68e-08
4.6e-09
7.1999997e-09
3.1000003e-09
9.5e-09
2.06e-08
1.98e-08
6.1e-09
6.8999997e-09
4.23e-08
8.74e-08
1.08e-07
1.0760001e-07
1.1790001e-07
1.6290001e-07
2.3119999e-07
2.842e-07
2.972e-07
2.842e-07
2.842e-07
3.0329997e-07
3.212e-07
3.212e-07
3.193e-07
3.4140004e-07
3.643e-07
3.3719996e-07
2.5409997e-07
1.606e-07
9.99e-08
7.4000006e-08
5.91e-08
2.06e-08
-5.2599997e-08
-1.4689999e-07
-2.3080001e-07
-2.754e-07
-2.754e-07
-2.5440002e-07
-2.445e-07
-2.5859998e-07
-2.9179998e-07
-3.216e-07
-3.2730003e-07
-3.09e-07
-2.7849998e-07
-2.495e-07
-2.3800003e-07
-2.46e-07
-2.5709997e-07
-2.51e-07
-2.2660001e-07
-2.045e-07
-1.968e-07
-1.9490001e-07
-1.9040003e-07
-1.8809999e-07
-2.026e-07
-2.2430001e-07
-2.3309998e-07
-2.239e-07
-2.1439998e-07
-2.1210002e-07
-2.0710002e-07
-1.8770001e-07
-1.675e-07
-1.72e-07
-1.9840002e-07
-2.026e-07
-1.621e-07
-1.0949999e-07
-1.0570001e-07
-1.598e-07
-2.2430001e-07
-2.369e-07
-1.953e-07
-1.453e-07
-1.274e-07
-1.453e-07
-1.717e-07
-1.648e-07
-1.225e-07
-9.16e-08
-1.1630001e-07
-1.6329999e-07
-1.728e-07
-1.53e-07
-1.659e-07
-1.976e-07
-1.7970001e-07
-1.038e-07
-5.3800004e-08
-9.46e-08
-1.762e-07
-2.0749998e-07
-1.675e-07
-9.88e-08
-5.61e-08
-8.0899994e-08
-1.579e-07
-2.056e-07
-1.511e-07
-3.8899998e-08
1.1800001e-08
-5.2300003e-08
-1.492e-07
-1.6940001e-07
-1.15999995e-07
-6.98e-08
-5.9899996e-08
-6.64e-08
-7.13e-08
-8.35e-08
-9.46e-08
-7.36e-08
-2.29e-08
-7.9999996e-10
-4.12e-08
-1.0570001e-07
-1.2779999e-07
-9.690001e-08
-5.9899996e-08
-5.19e-08
-6.9399995e-08
-8.5799996e-08
-8.7000004e-08
-7.4000006e-08
-5.91e-08
-4.58e-08
-3.9700005e-08
-3.7000003e-08
-3.7000003e-08
-3.6200003e-08
-3.78e-08
-4.4599997e-08
-4.6500002e-08
-3.8099998e-08
-2.86e-08
-3.51e-08
-5.53e-08
-6.41e-08
-4.54e-08
-1.68e-08
-3.3999998e-09
-1.5e-09
1.5e-09
-1.9e-09
-2.17e-08
-4.58e-08
-4.23e-08
-1.41e-08
4.6e-09
-1.49e-08
-5.91e-08
-7.71e-08
-4.4300002e-08
6.8999997e-09
3.05e-08
1.87e-08
6.4999996e-09
1.9500002e-08
4.88e-08
7.060001e-08
7.060001e-08
5.42e-08
3.17e-08
1.26e-08
-3.3999998e-09
-4.12e-08
-1.064e-07
-1.5750001e-07
-1.503e-07
-9.57e-08
-4.16e-08
-1.2999999e-08
-8.4e-09
-1.91e-08
-1.64e-08
6.22e-08
2.674e-07
5.2990003e-07
7.553e-07
9.472e-07
1.0914e-06
1.0314999e-06
6.706e-07
1.823e-07
-1.194e-07
-1.286e-07
-3.28e-08
-3.55e-08
-1.148e-07
-1.541e-07
-1.419e-07
-1.27e-07
-1.2049999e-07
-1.12500004e-07
-9.88e-08
-8.89e-08
-8.93e-08
-8.35e-08
-6.64e-08
-6.1799994e-08
-8.39e-08
-1.03e-07
-8.35e-08
-3.36e-08
3.9999998e-10
8.8e-09
1.56e-08
3.4e-08
4.88e-08
5.9899996e-08
7.1e-08
7.970001e-08
8.13e-08
8.280001e-08
9.77e-08
1.251e-07
1.53e-07
1.812e-07
2.1210002e-07
2.377e-07
2.529e-07
2.6930002e-07
2.9750004e-07
3.2309998e-07
3.3340004e-07
3.559e-07
4.105e-07
4.5390001e-07
4.33e-07
3.6620003e-07
3.1090002e-07
2.842e-07
2.483e-07
1.778e-07
1.0570001e-07
6.29e-08
3.32e-08
-1.64e-08
-9.0400015e-08
-1.61e-07
-2.0680002e-07
-2.2540002e-07
-2.388e-07
-2.697e-07
-3.0750002e-07
-3.193e-07
-2.899e-07
-2.563e-07
-2.5830002e-07
-2.842e-07
-2.9679998e-07
-2.72e-07
-2.3650001e-07
-2.2619999e-07
-2.514e-07
-2.842e-07
-2.953e-07
-2.7239997e-07
-2.3540001e-07
-2.2540002e-07
-2.537e-07
-2.7309997e-07
-2.4339997e-07
-1.911e-07
-1.7890001e-07
-2.1439998e-07
-2.4189998e-07
-2.201e-07
-1.8310001e-07
-1.778e-07
-1.961e-07
-2.026e-07
-1.991e-07
-2.037e-07
-2.0710002e-07
-1.9380002e-07
-1.747e-07
-1.6140001e-07
-1.64e-07
-1.8420002e-07
-2.0869999e-07
-2.182e-07
-2.045e-07
-1.8200002e-07
-1.72e-07
-1.682e-07
-1.587e-07
-1.434e-07
-1.369e-07
-1.461e-07
-1.637e-07
-1.7400001e-07
-1.5559999e-07
-1.14100004e-07
-9.77e-08
-1.3850001e-07
-1.987e-07
-2.2049998e-07
-1.858e-07
-1.453e-07
-1.3729999e-07
-1.4759999e-07
-1.434e-07
-1.18600006e-07
-1.0719999e-07
-1.286e-07
-1.6560001e-07
-1.698e-07
-1.324e-07
-8.620001e-08
-1.4499999e-08
1.511e-07
3.9100004e-07
6.279e-07
8.5140005e-07
1.0306999e-06
1.0005999e-06
6.4279993e-07
1.312e-07
-1.896e-07
-1.823e-07
-4.92e-08
-3.4e-08
-1.2169998e-07
-1.6859998e-07
-1.5559999e-07
-1.499e-07
-1.663e-07
-1.8269999e-07
-1.823e-07
-1.5750001e-07
-1.232e-07
-9.42e-08
-7.6300005e-08
-6.7500004e-08
-6.48e-08
-6.07e-08
-5.000001e-08
-3.8499998e-08
-3.7000003e-08
-4.6200004e-08
-4.84e-08
-3.2e-08
-1.14e-08
8.4e-09
3.8899998e-08
8.93e-08
1.381e-07
1.644e-07
1.743e-07
1.865e-07
2.01e-07
2.098e-07
2.2739998e-07
2.689e-07
3.1390002e-07
3.3719996e-07
3.586e-07
3.8829998e-07
4.017e-07
3.681e-07
3.0329997e-07
2.5440002e-07
2.449e-07
2.3540001e-07
1.766e-07
6.7100004e-08
-4.3900002e-08
-1.14100004e-07
-1.4269999e-07
-1.678e-07
-2.113e-07
-2.567e-07
-2.857e-07
-2.987e-07
-2.979e-07
-2.842e-07
-2.6089998e-07
-2.491e-07
-2.598e-07
-2.7660002e-07
-2.85e-07
-2.7810003e-07
-2.491e-07
-2.033e-07
-1.823e-07
-2.2280001e-07
-2.9179998e-07
-3.1090002e-07
-2.525e-07
-1.762e-07
-1.5260001e-07
-1.8310001e-07
-2.167e-07
-2.235e-07
-2.102e-07
-1.911e-07
-1.884e-07
-2.2049998e-07
-2.6170002e-07
-2.5859998e-07
-1.93e-07
-1.122e-07
-8.35e-08
-1.202e-07
-1.6859998e-07
-1.8809999e-07
-1.8690001e-07
-1.8499999e-07
-1.7699999e-07
-1.5750001e-07
-1.4269999e-07
-1.423e-07
-1.423e-07
-1.209e-07
-8.93e-08
-8.0899994e-08
-1.038e-07
-1.286e-07
-1.328e-07
-1.27e-07
-1.1900001e-07
-9.5e-08
-5.8699996e-08
-4.54e-08
-7.3200006e-08
-1.1369999e-07
-1.221e-07
-9.690001e-08
-7.3200006e-08
-7.51e-08
-8.7000004e-08
-8.81e-08
-7.86e-08
-7.17e-08
-6.68e-08
-5.3800004e-08
-3.78e-08
-3.28e-08
-4.16e-08
-4.3900002e-08
-3.01e-08
-1.68e-08
-1.79e-08
-1.87e-08
4.6e-09
3.6600003e-08
2.94e-08
-3.24e-08
-1.02600005e-07
-1.266e-07
-9.7299996e-08
-5.15e-08
-3.4299998e-08
-6.7100004e-08
-1.2169998e-07
-1.5180001e-07
-1.24e-07
-5.6499996e-08
-1.03e-08
-2.1400004e-08
-7.4000006e-08
-1.16699994e-07
-1.15199995e-07
-5.2300003e-08
9.84e-08
3.212e-07
5.295e-07
6.8440005e-07
7.942e-07
7.912e-07
5.741e-07
2.026e-07
-1.02600005e-07
-1.8040001e-07
-9.65e-08
-4.08e-08
-7.74e-08
-1.144e-07
-1.0760001e-07
-9.16e-08
-1.0030001e-07
-1.3660001e-07
-1.728e-07
-1.579e-07
-9.31e-08
-3.36e-08
-3.01e-08
-7.3200006e-08
-1.13300004e-07
-1.03e-07
-4.6200004e-08
1.49e-08
3.4299998e-08
1.4499999e-08
-1.0700002e-08
-1.5e-09
3.13e-08
6.37e-08
8.24e-08
9.42e-08
9.77e-08
9.65e-08
1.06e-07
1.4689999e-07
2.0179999e-07
2.285e-07
2.151e-07
2.026e-07
2.209e-07
2.5749998e-07
2.8879998e-07
3.094e-07
3.1660002e-07
3.0479998e-07
2.819e-07
2.682e-07
2.6470002e-07
2.4339997e-07
1.8420002e-07
1.11400006e-07
4.84e-08
-1.22e-08
-7.25e-08
-1.1630001e-07
-1.404e-07
-1.6290001e-07
-1.9840002e-07
-2.377e-07
-2.67e-07
-2.831e-07
-2.834e-07
-2.666e-07
-2.319e-07
-2.06e-07
-2.0640003e-07
-2.2049998e-07
-2.2660001e-07
-2.3270003e-07
-2.487e-07
-2.6210003e-07
-2.5409997e-07
-2.3540001e-07
-2.3540001e-07
-2.59e-07
-2.686e-07
-2.319e-07
-1.698e-07
-1.3660001e-07
-1.514e-07
-1.8809999e-07
-2.1170001e-07
-2.1210002e-07
-2.0640003e-07
-2.1360003e-07
-2.201e-07
-2.056e-07
-1.678e-07
-1.4569999e-07
-1.598e-07
-1.945e-07
-2.1099999e-07
-2.029e-07
-2.0219998e-07
-2.1969998e-07
-1.9490001e-07
-4.88e-08
1.8009999e-07
4.055e-07
5.9170003e-07
6.596e-07
4.5889996e-07
-3.8899998e-08
-6.168e-07
-9.716001e-07
-1.0189001e-06
-9.693e-07
-1.0429e-06
-1.1826e-06
-1.1818e-06
-9.700999e-07
-6.4619996e-07
-3.6160006e-07
-1.839e-07
-7.060001e-08
1.68e-08
7.48e-08
9.88e-08
1.1369999e-07
1.354e-07
1.5369999e-07
1.7010001e-07
2.0520001e-07
2.5559999e-07
2.8110003e-07
2.728e-07
2.7389999e-07
3.0779998e-07
3.456e-07
3.6510002e-07
3.8299999e-07
4.185e-07
4.498e-07
4.5510004e-07
4.6390002e-07
5.138e-07
5.722e-07
5.901e-07
5.8710003e-07
6.2750007e-07
7.0420003e-07
7.526001e-07
7.4390005e-07
7.1370005e-07
6.7710005e-07
6.187e-07
5.375e-07
4.5889996e-07
3.86e-07
3.056e-07
2.174e-07
1.392e-07
6.1399994e-08
-3.78e-08
-1.545e-07
-2.46e-07
-2.903e-07
-3.1200003e-07
-3.4030003e-07
-3.666e-07
-3.716e-07
-3.5710005e-07
-3.5509998e-07
-3.7959998e-07
-4.013e-07
-3.8530004e-07
-3.468e-07
-3.2269998e-07
-3.2350002e-07
-3.319e-07
-3.2690002e-07
-3.0779998e-07
-2.937e-07
-2.9560002e-07
-3.1550002e-07
-3.284e-07
-3.0439998e-07
-2.5709997e-07
-2.346e-07
-2.491e-07
-2.6470002e-07
-2.483e-07
-2.178e-07
-2.01e-07
-1.961e-07
-1.945e-07
-2.1210002e-07
-2.491e-07
-2.7049998e-07
-2.3959998e-07
-1.846e-07
-1.648e-07
-1.961e-07
-2.3270003e-07
-2.369e-07
-2.1630001e-07
-2.037e-07
-2.0029998e-07
-1.862e-07
-1.644e-07
-1.621e-07
-1.839e-07
-2.045e-07
-1.9380002e-07
-1.5559999e-07
-1.2359999e-07
-1.312e-07
-1.6900002e-07
-1.926e-07
-1.816e-07
-1.61e-07
-1.5639999e-07
-1.579e-07
-1.339e-07
-8.93e-08
-7.6700005e-08
-1.0069999e-07
-1.2169998e-07
-1.148e-07
-1.038e-07
-1.053e-07
-1.08e-07
-9.88e-08
-9.2700006e-08
-9.7999994e-08
-1.03e-07
-9.77e-08
-1.03e-07
-1.274e-07
-1.431e-07
-1.232e-07
-8.4700005e-08
-6.1399994e-08
-6.41e-08
-7.51e-08
-7.7799996e-08
-6.6e-08
-4.73e-08
-4.2e-08
-6.41e-08
-9.65e-08
-9.61e-08
-5.9500007e-08
-4.5e-08
-8.8499995e-08
-1.419e-07
-1.312e-07
-6.03e-08
4.2e-09
9.9e-09
-1.56e-08
-3.2e-08
-3.4e-08
-4.73e-08
-7.6300005e-08
-1.087e-07
-1.16699994e-07
-9.23e-08
-5.000001e-08
-9.2e-09
7.6e-09
-7.9999996e-10
-2.1e-08
-4.3500002e-08
-6.33e-08
-7.93e-08
-7.48e-08
-4.0099998e-08
-5.0000004e-09
-9.2e-09
-3.9700005e-08
-5.1099995e-08
-2.7500002e-08
-7.6e-09
-2.5599999e-08
-7.25e-08
-9.46e-08
-6.41e-08
-2.25e-08
-1.79e-08
-4.23e-08
-5.15e-08
-1.49e-08
3.4299998e-08
3.13e-08
-2.6299999e-08
-6.6e-08
-4.08e-08
1.1800001e-08
2.71e-08
-5.3000004e-09
-4.16e-08
-3.93e-08
4.6e-09
4.54e-08
5.5700003e-08
3.8499998e-08
6.4999996e-09
-2.17e-08
-3.4699998e-08
-3.8899998e-08
-3.8099998e-08
-3.4699998e-08
-3.8099998e-08
-5.4900003e-08
-7.55e-08
-7.6300005e-08
-4.23e-08
5.3000004e-09
2.02e-08
1.98e-08
1.049e-07
3.1240003e-07
5.775e-07
8.5909994e-07
1.1088999e-06
1.1501e-06
8.308e-07
2.9560002e-07
-8.2e-08
-1.1750001e-07
3.1000003e-09
1.1800001e-08
-9.2700006e-08
-1.541e-07
-1.415e-07
-1.255e-07
-1.1369999e-07
-8.93e-08
-7.13e-08
-8.32e-08
-1.064e-07
-1.11400006e-07
-9.99e-08
-9.380001e-08
-8.77e-08
-5.84e-08
-1.64e-08
-2.3e-09
-2.4800002e-08
-4.6200004e-08
-3.7000003e-08
3.8e-09
5.0700002e-08
7.970001e-08
8.4700005e-08
6.87e-08
5.2300003e-08
5.2599997e-08
7.13e-08
1.06800016e-07
1.5600001e-07
1.965e-07
2.0139998e-07
1.8499999e-07
1.991e-07
2.5559999e-07
3.1780002e-07
3.4330003e-07
3.4220002e-07
3.3950002e-07
3.456e-07
3.635e-07
3.8299999e-07
3.788e-07
3.33e-07
2.5440002e-07
1.759e-07
1.282e-07
1.1790001e-07
1.259e-07
1.099e-07
3.78e-08
-8.24e-08
-1.858e-07
-2.323e-07
-2.27e-07
-2.026e-07
-1.9570001e-07
-2.1969998e-07
-2.59e-07
-2.934e-07
-3.136e-07
-3.204e-07
-3.017e-07
-2.495e-07
-1.9339998e-07
-1.9149999e-07
-2.445e-07
-2.911e-07
-2.8799997e-07
-2.518e-07
-2.247e-07
-2.1969998e-07
-2.2239999e-07
-2.193e-07
-2.1439998e-07
-2.1439998e-07
-2.155e-07
-2.1099999e-07
-1.9339998e-07
-1.6560001e-07
-1.343e-07
-1.3079999e-07
-1.743e-07
-2.3959998e-07
-2.5749998e-07
-2.0869999e-07
-1.4759999e-07
-1.312e-07
-1.6329999e-07
-1.98e-07
-2.01e-07
-1.755e-07
-1.499e-07
-1.411e-07
-1.347e-07
-1.1979999e-07
-1.091e-07
-1.335e-07
-1.93e-07
-2.3270003e-07
-2.2739998e-07
-2.125e-07
-2.1589999e-07
-2.1710001e-07
-1.9570001e-07
-1.644e-07
-1.392e-07
-1.1900001e-07
-1.171e-07
-1.4419999e-07
-1.816e-07
-1.991e-07
-1.816e-07
-1.3580001e-07
-8.5799996e-08
-5.42e-08
-1.22e-08
1.106e-07
3.25e-07
5.733e-07
8.162999e-07
9.804002e-07
9.167e-07
5.508e-07
6.1e-08
-2.3379998e-07
-2.0479999e-07
-5.15e-08
-1.4499999e-08
-9.12e-08
-1.4269999e-07
-1.4269999e-07
-1.461e-07
-1.7130002e-07
-1.93e-07
-1.8080003e-07
-1.396e-07
-1.0760001e-07
-1.10200006e-07
-1.15599995e-07
-9.16e-08
-4.54e-08
-2.2099998e-08
-4.16e-08
-7.209999e-08
-6.7500004e-08
-2.4800002e-08
-7.9999996e-10
-2.1e-08
-3.7000003e-08
5.7e-09
9.96e-08
1.7970001e-07
2.037e-07
1.865e-07
1.698e-07
1.6940001e-07
1.774e-07
2.0900002e-07
2.7770002e-07
3.4520002e-07
3.5509998e-07
3.0779998e-07
2.7770002e-07
3.151e-07
3.6960003e-07
3.6390003e-07
2.998e-07
2.3959998e-07
1.911e-07
1.129e-07
3.8e-09
-7.6700005e-08
-1.0829999e-07
-1.392e-07
-2.0179999e-07
-2.6470002e-07
-2.9300003e-07
-2.8920002e-07
-2.815e-07
-2.869e-07
-3.0860002e-07
-3.3800004e-07
-3.5210002e-07
-3.3109998e-07
-2.9560002e-07
-2.861e-07
-3.0019999e-07
-3.0019999e-07
-2.838e-07
-2.7309997e-07
-2.697e-07
-2.598e-07
-2.415e-07
-2.377e-07
-2.5749998e-07
-2.7849998e-07
-2.594e-07
-2.1099999e-07
-1.793e-07
-1.9570001e-07
-2.426e-07
-2.7770002e-07
-2.7430002e-07
-2.4029998e-07
-1.961e-07
-1.648e-07
-1.648e-07
-1.919e-07
-2.182e-07
-2.251e-07
-2.102e-07
-1.778e-07
-1.45e-07
-1.3660001e-07
-1.568e-07
-1.873e-07
-1.919e-07
-1.6900002e-07
-1.606e-07
-1.9040003e-07
-2.2430001e-07
-2.113e-07
-1.53e-07
-9.7999994e-08
-9.31e-08
-1.3310002e-07
-1.644e-07
-1.5559999e-07
-1.328e-07
-1.312e-07
-1.4380001e-07
-1.453e-07
-1.3310002e-07
-1.171e-07
-1.122e-07
-1.18600006e-07
-1.18600006e-07
-1.0949999e-07
-1.0340001e-07
-1.087e-07
-1.1630001e-07
-1.106e-07
-9.2700006e-08
-8.81e-08
-1.0719999e-07
-1.2779999e-07
-1.129e-07
-7.3200006e-08
-5.46e-08
-7.4000006e-08
-9.54e-08
-8.74e-08
-6.64e-08
-6.87e-08
-8.5799996e-08
-9e-08
-7.3200006e-08
-6.22e-08
-7.060001e-08
-8.4700005e-08
-8.39e-08
-6.1e-08
-3.51e-08
-4.3100005e-08
-8.2e-08
-1.06e-07
-7.9e-08
-3.17e-08
-2.37e-08
-6.7100004e-08
-9.57e-08
-6.1799994e-08
-5.7e-09
7.1999997e-09
-2.2099998e-08
-5.42e-08
-7.36e-08
-7.93e-08
-7.2899994e-08
-4.84e-08
-2.3299998e-08
-1.53e-08
-2.4e-08
-3.8899998e-08
-5.9899996e-08
-6.98e-08
-3.9700005e-08
1.33999984e-08
2.17e-08
-3.74e-08
-8.8499995e-08
-6.56e-08
-9.9e-09
0.0
-3.36e-08
-5.91e-08
-5.7999998e-08
-4.27e-08
-2.8999999e-08
-2.1e-08
-2.3299998e-08
-3.51e-08
-3.59e-08
-6.1e-09
2.02e-08
-4.6e-09
-6.7900004e-08
-9.88e-08
-6.48e-08
-1.41e-08
-6.4999996e-09
-3.6200003e-08
-5.1099995e-08
-2.98e-08
-1.11e-08
-1.0700002e-08
-8.4e-09
1.9e-09
-3.3999998e-09
-9.9e-09
1.22e-08
4.12e-08
2.59e-08
-3.4299998e-08
-7.970001e-08
-6.8300004e-08
-2.7500002e-08
3.8e-09
9.5e-09
-5.7e-09
-3.05e-08
-3.4e-08
-1.9e-09
4.0099998e-08
5.6800005e-08
5.2599997e-08
5.3800004e-08
6.48e-08
5.8699996e-08
2.29e-08
-2.52e-08
-5.4900003e-08
-5.8699996e-08
-5.04e-08
-4.4599997e-08
-4.04e-08
-2.5599999e-08
-4.6e-09
1.1e-09
-1.79e-08
-4.73e-08
-6.1e-08
-5.8699996e-08
-3.01e-08
7.6300005e-08
2.8920002e-07
5.348e-07
7.656e-07
1.0075001e-06
1.1864e-06
1.0891e-06
6.4770006e-07
1.343e-07
-1.183e-07
-8.7000004e-08
-1.2999999e-08
-4.73e-08
-1.11400006e-07
-1.2470001e-07
-1.274e-07
-1.5260001e-07
-1.675e-07
-1.514e-07
-1.15199995e-07
-7.970001e-08
-7.55e-08
-1.11e-07
-1.415e-07
-1.183e-07
-5.72e-08
-2.6299999e-08
-5.000001e-08
-8.32e-08
-6.9399995e-08
-1.33999984e-08
2.94e-08
3.8099998e-08
3.6200003e-08
3.59e-08
2.82e-08
2.6700004e-08
5.9899996e-08
1.15599995e-07
1.472e-07
1.3079999e-07
1.06e-07
1.343e-07
2.2320002e-07
3.1780002e-07
3.658e-07
3.632e-07
3.3340004e-07
3.0479998e-07
3.059e-07
3.3109998e-07
3.548e-07
3.559e-07
3.3719996e-07
3.1550002e-07
3.029e-07
2.9260002e-07
2.6170002e-07
2.0179999e-07
1.202e-07
3.01e-08
-4.84e-08
-1.0340001e-07
-1.2470001e-07
-1.2929999e-07
-1.4460001e-07
-1.926e-07
-2.502e-07
-2.7389999e-07
-2.59e-07
-2.487e-07
-2.7349998e-07
-2.995e-07
-2.85e-07
-2.491e-07
-2.2809999e-07
-2.1320001e-07
-1.862e-07
-1.762e-07
-2.125e-07
-2.605e-07
-2.6320004e-07
-2.2540002e-07
-2.0710002e-07
-2.377e-07
-2.7579998e-07
-2.72e-07
-2.277e-07
-1.743e-07
-1.4689999e-07
-1.5639999e-07
-1.919e-07
-2.2320002e-07
-2.3309998e-07
-2.167e-07
-1.8770001e-07
-1.5750001e-07
-1.4839999e-07
-1.6859998e-07
-2.026e-07
-2.1399998e-07
-1.991e-07
-1.7090001e-07
-1.4800001e-07
-1.396e-07
-1.453e-07
-1.5369999e-07
-1.6859998e-07
-1.923e-07
-2.06e-07
-1.9040003e-07
-1.675e-07
-1.648e-07
-1.7849999e-07
-1.8809999e-07
-1.8690001e-07
-1.8200002e-07
-1.743e-07
-1.625e-07
-1.602e-07
-1.7400001e-07
-1.835e-07
-1.625e-07
-1.3619999e-07
-1.1900001e-07
-3.28e-08
1.926e-07
4.7300003e-07
7.1560004e-07
9.335e-07
1.0807e-06
9.712e-07
5.375e-07
3.6200003e-08
-1.976e-07
-1.335e-07
-3.8499998e-08
-9.350001e-08
-1.991e-07
-2.0749998e-07
-1.4269999e-07
-9.88e-08
-1.171e-07
-1.7090001e-07
-1.9339998e-07
-1.511e-07
-9.77e-08
-9.42e-08
-1.2279999e-07
-1.286e-07
-1.144e-07
-1.11800006e-07
-1.06800016e-07
-6.1399994e-08
5.3000004e-09
2.29e-08
-1.98e-08
-3.8099998e-08
2.4e-08
1.03e-07
1.0409999e-07
3.93e-08
9.2e-09
7.25e-08
1.858e-07
2.678e-07
2.9179998e-07
2.964e-07
3.147e-07
3.513e-07
3.9900002e-07
4.375e-07
4.4099997e-07
4.059e-07
3.6469999e-07
3.3759997e-07
3.193e-07
2.831e-07
2.106e-07
1.183e-07
4.6900006e-08
5.0000004e-09
-3.59e-08
-1.0829999e-07
-2.007e-07
-2.598e-07
-2.6280003e-07
-2.6589998e-07
-3.17e-07
-3.6469999e-07
-3.475e-07
-3.006e-07
-2.815e-07
-2.9139997e-07
-3.0019999e-07
-3.0520002e-07
-3.151e-07
-3.1660002e-07
-2.911e-07
-2.548e-07
-2.3959998e-07
-2.4029998e-07
-2.487e-07
-2.7579998e-07
-3.0479998e-07
-2.819e-07
-2.155e-07
-1.8770001e-07
-2.2660001e-07
-2.701e-07
-2.5440002e-07
-2.0790003e-07
-1.926e-07
-2.182e-07
-2.3730001e-07
-2.209e-07
-1.9490001e-07
-1.9380002e-07
-2.209e-07
-2.4300002e-07
-2.2430001e-07
-1.751e-07
-1.4460001e-07
-1.595e-07
-1.987e-07
-2.1210002e-07
-1.9069999e-07
-1.732e-07
-1.858e-07
-1.976e-07
-1.6900002e-07
-1.11e-07
-8.54e-08
-1.27e-07
-1.976e-07
-2.247e-07
-1.839e-07
-1.16699994e-07
-8.4700005e-08
-1.11e-07
-1.621e-07
-1.675e-07
-1.03e-07
-2.82e-08
-2.52e-08
-1.0030001e-07
-1.7049999e-07
-1.6940001e-07
-1.259e-07
-9.61e-08
-9.12e-08
-8.2e-08
-7.44e-08
-9.19e-08
-1.1900001e-07
-1.14100004e-07
-6.1399994e-08
-1.1800001e-08
-1.2999999e-08
-4.73e-08
-7.17e-08
-8.24e-08
-8.960001e-08
-9.57e-08
-1.053e-07
-1.2169998e-07
-1.251e-07
-9.7999994e-08
-6.07e-08
-5.6499996e-08
-9.0400015e-08
-1.12500004e-07
-9.16e-08
-7.060001e-08
-8.429999e-08
-9.380001e-08
-6.8300004e-08
-4.6500002e-08
-2.4e-08
8.74e-08
2.998e-07
5.44e-07
7.9079996e-07
9.792e-07
9.585999e-07
6.3929997e-07
1.774e-07
-1.377e-07
-1.7699999e-07
-8.960001e-08
-6.7100004e-08
-1.0719999e-07
-1.286e-07
-1.4e-07
-1.5369999e-07
-1.492e-07
-1.194e-07
-8.24e-08
-5.6499996e-08
-5.72e-08
-8.8499995e-08
-1.244e-07
-1.2929999e-07
-9.61e-08
-4.92e-08
-1.98e-08
-2.06e-08
-3.36e-08
-3.24e-08
-1.75e-08
1.49e-08
6.1799994e-08
9.42e-08
8.89e-08
6.68e-08
5.6499996e-08
7.3200006e-08
1.18600006e-07
1.7010001e-07
2.045e-07
2.209e-07
2.377e-07
2.682e-07
3.063e-07
3.342e-07
3.5739998e-07
3.9100004e-07
4.185e-07
4.108e-07
3.6960003e-07
3.1969998e-07
2.7849998e-07
2.377e-07
1.835e-07
1.2049999e-07
6.9399995e-08
2.1400004e-08
-4.6500002e-08
-1.404e-07
-2.102e-07
-2.0179999e-07
-1.503e-07
-1.5369999e-07
-2.369e-07
-3.254e-07
-3.4140004e-07
-2.9560002e-07
-2.525e-07
-2.453e-07
-2.525e-07
-2.529e-07
-2.548e-07
-2.5409997e-07
-2.438e-07
-2.361e-07
-2.453e-07
-2.6210003e-07
-2.5709997e-07
-2.098e-07
-1.572e-07
-1.6170002e-07
-2.174e-07
-2.5440002e-07
-2.3730001e-07
-2.033e-07
-1.865e-07
-1.762e-07
-1.553e-07
-1.3729999e-07
-1.587e-07
-2.0520001e-07
-2.251e-07
-1.999e-07
-1.663e-07
-1.4650001e-07
-1.377e-07
-1.305e-07
-1.232e-07
-1.255e-07
-1.3729999e-07
-1.274e-07
-8.7000004e-08
-6.9e-08
-1.129e-07
-1.762e-07
-2.01e-07
-1.961e-07
-1.945e-07
-1.862e-07
-1.461e-07
-1.0030001e-07
-1.0340001e-07
-1.419e-07
-1.5600001e-07
-1.225e-07
-8.960001e-08
-8.74e-08
-1.0069999e-07
-1.194e-07
-1.5559999e-07
-1.8009999e-07
-1.5490001e-07
-8.35e-08
1.8300002e-08
1.755e-07
3.8990004e-07
6.3289997e-07
8.8010006e-07
1.0582e-06
1.0017001e-06
6.2519996e-07
9.88e-08
-2.251e-07
-1.7130002e-07
4.04e-08
8.16e-08
-6.7900004e-08
-1.873e-07
-1.6519999e-07
-7.7799996e-08
-4.2e-08
-8.35e-08
-1.3500001e-07
-1.3500001e-07
-9.7299996e-08
-6.37e-08
-5.6800005e-08
-6.56e-08
-6.1799994e-08
-4.6900006e-08
-4.04e-08
-3.4299998e-08
-1.56e-08
-8.4e-09
-1.98e-08
-1.14e-08
4.23e-08
1.099e-07
1.541e-07
1.648e-07
1.5559999e-07
1.3619999e-07
1.213e-07
1.3619999e-07
1.8880002e-07
2.392e-07
2.5859998e-07
2.666e-07
2.872e-07
3.1890002e-07
3.555e-07
3.7380002e-07
3.4030003e-07
2.6320004e-07
2.113e-07
2.2159999e-07
2.4339997e-07
1.9490001e-07
6.03e-08
-9.0400015e-08
-1.7970001e-07
-1.896e-07
-1.6290001e-07
-1.514e-07
-1.7890001e-07
-2.3800003e-07
-2.8799997e-07
-3.0479998e-07
-2.9600002e-07
-2.7849998e-07
-2.701e-07
-2.9179998e-07
-3.399e-07
-3.6160006e-07
-3.059e-07
-2.1710001e-07
-1.923e-07
-2.5709997e-07
-3.162e-07
-2.838e-07
-1.93e-07
-1.5600001e-07
-2.1439998e-07
-2.9260002e-07
-2.964e-07
-2.2049998e-07
-1.4380001e-07
-1.354e-07
-1.743e-07
-1.991e-07
-1.991e-07
-2.0710002e-07
-2.277e-07
-2.2809999e-07
-1.991e-07
-1.579e-07
-1.2359999e-07
-1.2049999e-07
-1.602e-07
-2.098e-07
-2.0900002e-07
-1.495e-07
-1.122e-07
-1.5559999e-07
-2.193e-07
-2.1630001e-07
-1.492e-07
-1.0760001e-07
-1.381e-07
-2.0409999e-07
-2.151e-07
-1.434e-07
-6.41e-08
-7.6700005e-08
-1.648e-07
-2.247e-07
-1.9339998e-07
-1.1790001e-07
-8.0899994e-08
-1.0409999e-07
-1.4419999e-07
-1.6670002e-07
-1.6290001e-07
-1.3889999e-07
-1.06e-07
-9.16e-08
-9.54e-08
-9.7999994e-08
-9.380001e-08
-1.10200006e-07
-1.511e-07
-1.7849999e-07
-1.553e-07
-1.0069999e-07
-6.8300004e-08
-7.51e-08
-8.620001e-08
-8.280001e-08
-7.51e-08
-8.620001e-08
-1.148e-07
-1.3889999e-07
-1.2929999e-07
-8.620001e-08
-5.1099995e-08
-6.1e-08
-9.19e-08
-9.12e-08
-3.9700005e-08
8.4e-09
-1.41e-08
-9.84e-08
-1.6560001e-07
-1.568e-07
-8.280001e-08
-1.22e-08
-4.6e-09
-5.8699996e-08
-1.251e-07
-1.495e-07
-1.06e-07
-2.44e-08
2.8999999e-08
1.4499999e-08
-3.9700005e-08
-7.209999e-08
-5.84e-08
-2.2099998e-08
-3.1000003e-09
-1.79e-08
-4.88e-08
-7.4000006e-08
-7.93e-08
-6.48e-08
-4.0099998e-08
-2.17e-08
-2.86e-08
-4.88e-08
-4.3500002e-08
7.9999996e-10
3.74e-08
8.4e-09
-7.44e-08
-1.3580001e-07
-1.15999995e-07
-3.9700005e-08
2.02e-08
1.87e-08
-3.2e-08
-7.93e-08
-8.429999e-08
-4.3900002e-08
1.49e-08
5.46e-08
4.12e-08
-2.17e-08
-8.8499995e-08
-9.46e-08
-2.8999999e-08
4.27e-08
4.0099998e-08
-3.01e-08
-7.970001e-08
-5.2599997e-08
1.2999999e-08
4.5e-08
2.3299998e-08
-1.75e-08
-3.05e-08
-3.8e-09
2.82e-08
2.4e-08
-1.49e-08
-4.3900002e-08
-4.16e-08
-2.17e-08
-1.33999984e-08
-3.8e-09
2.6299999e-08
5.8699996e-08
6.48e-08
3.4299998e-08
-1.4499999e-08
-3.7000003e-08
-1.5e-09
6.87e-08
1.0109999e-07
5.7999998e-08
-2.29e-08
-7.02e-08
-5.84e-08
-6.4999996e-09
3.7000003e-08
2.71e-08
-4.0099998e-08
-1.0409999e-07
-1.019e-07
-3.8099998e-08
1.26e-08
6.1e-09
-3.51e-08
-5.9500007e-08
-3.6600003e-08
5.0700002e-08
2.007e-07
3.75e-07
5.714e-07
8.442001e-07
1.1264999e-06
1.1753e-06
8.358e-07
2.937e-07
-8.620001e-08
-1.472e-07
-6.37e-08
-5.46e-08
-1.286e-07
-1.7699999e-07
-1.6900002e-07
-1.3580001e-07
-1.0149999e-07
-8.89e-08
-1.053e-07
-1.2359999e-07
-1.232e-07
-9.690001e-08
-5.91e-08
-3.17e-08
-3.4e-08
-7.6300005e-08
-1.3580001e-07
-1.5600001e-07
-1.019e-07
-9.9e-09
5.42e-08
6.1399994e-08
4.0099998e-08
2.44e-08
2.71e-08
2.7500002e-08
1.2999999e-08
4.2e-09
3.59e-08
1.11800006e-07
1.762e-07
1.747e-07
1.4759999e-07
1.8009999e-07
2.689e-07
3.216e-07
2.991e-07
2.6130002e-07
2.72e-07
3.181e-07
3.559e-07
3.624e-07
3.506e-07
3.3109998e-07
3.025e-07
2.491e-07
1.839e-07
1.335e-07
1.183e-07
1.221e-07
9.99e-08
2.94e-08
-6.6e-08
-1.45e-07
-1.9149999e-07
-2.1480001e-07
-2.2660001e-07
-2.369e-07
-2.598e-07
-2.827e-07
-2.9600002e-07
-3.006e-07
-2.827e-07
-2.4339997e-07
-2.1969998e-07
-2.464e-07
-2.945e-07
-3.0520002e-07
-2.602e-07
-2.113e-07
-2.102e-07
-2.369e-07
-2.369e-07
-2.1439998e-07
-2.151e-07
-2.3569999e-07
-2.4029998e-07
-2.155e-07
-1.953e-07
-1.942e-07
-1.926e-07
-1.884e-07
-2.098e-07
-2.514e-07
-2.579e-07
-1.987e-07
-1.3580001e-07
-1.45e-07
-2.1099999e-07
-2.426e-07
-2.033e-07
-1.541e-07
-1.503e-07
-1.751e-07
-1.839e-07
-1.675e-07
-1.431e-07
-1.3619999e-07
-1.579e-07
-1.961e-07
-2.1969998e-07
-2.098e-07
-1.816e-07
-1.648e-07
-1.5830001e-07
-1.5180001e-07
-1.5490001e-07
-1.7699999e-07
-1.911e-07
-1.7010001e-07
-1.4569999e-07
-1.6170002e-07
-2.0869999e-07
-2.251e-07
-1.8200002e-07
-1.171e-07
-8.93e-08
-1.0409999e-07
-7.7799996e-08
9.08e-08
3.849e-07
6.886e-07
9.27e-07
1.0509e-06
9.639999e-07
6.344e-07
2.193e-07
-4.9600004e-08
-9.19e-08
-5.84e-08
-9.690001e-08
-1.64e-07
-1.53e-07
-9.350001e-08
-7.5900005e-08
-1.0829999e-07
-1.495e-07
-1.6519999e-07
-1.5219999e-07
-1.328e-07
-1.221e-07
-1.1369999e-07
-1.049e-07
-1.0219999e-07
-1.0340001e-07
-8.93e-08
-5.2599997e-08
-1.79e-08
-2.02e-08
-3.93e-08
-2.29e-08
3.59e-08
8.429999e-08
8.429999e-08
5.61e-08
5.53e-08
9.5e-08
1.431e-07
1.8009999e-07
2.083e-07
2.384e-07
2.6589998e-07
2.8879998e-07
3.1009998e-07
3.284e-07
3.4140004e-07
3.532e-07
3.635e-07
3.658e-07
3.5359997e-07
3.2269998e-07
2.728e-07
1.965e-07
1.0450001e-07
1.79e-08
-4.88e-08
-9.84e-08
-1.3580001e-07
-1.6940001e-07
-2.01e-07
-2.3650001e-07
-2.712e-07
-2.934e-07
-2.979e-07
-2.972e-07
-2.945e-07
-2.872e-07
-2.7960002e-07
-2.7849998e-07
-2.831e-07
-2.804e-07
-2.67e-07
-2.514e-07
-2.399e-07
-2.277e-07
-2.1710001e-07
-2.0939999e-07
-2.0680002e-07
-2.026e-07
-1.965e-07
-1.9149999e-07
-1.884e-07
-1.8310001e-07
-1.7810001e-07
-1.793e-07
-1.873e-07
-1.965e-07
-1.93e-07
-1.7130002e-07
-1.4569999e-07
-1.411e-07
-1.606e-07
-1.8310001e-07
-1.8310001e-07
-1.675e-07
-1.545e-07
-1.545e-07
-1.568e-07
-1.5369999e-07
-1.499e-07
-1.4569999e-07
-1.419e-07
-1.4269999e-07
-1.4380001e-07
-1.396e-07
-1.3079999e-07
-1.286e-07
-1.335e-07
-1.335e-07
-1.24e-07
-1.091e-07
-9.96e-08
-9.77e-08
-9.99e-08
-1.038e-07
-1.08e-07
-1.0069999e-07
-8.66e-08
-7.55e-08
-7.48e-08
-7.74e-08
-7.13e-08
-5.2300003e-08
-3.4e-08
-2.59e-08
-3.8899998e-08
-6.03e-08
-7.4000006e-08
-7.55e-08
-7.3200006e-08
-8.0899994e-08
-8.960001e-08
-9e-08
-8.01e-08
-6.98e-08
-6.7100004e-08
-6.37e-08
-5.3400008e-08
-4.6500002e-08
-4.92e-08
-3.78e-08
4.2e-09
7.93e-08
2.3569999e-07
4.8679993e-07
7.5150007e-07
9.102001e-07
8.686e-07
6.1040004e-07
2.4410002e-07
-5.3e-08
-1.6670002e-07
-1.1630001e-07
-2.3299998e-08
5.0000004e-09
-2.5599999e-08
-5.000001e-08
-5.42e-08
-5.000001e-08
-4.54e-08
-5.000001e-08
-5.61e-08
-5.19e-08
-3.4e-08
-1.98e-08
-1.64e-08
-1.75e-08
-8e-09
9.9e-09
2.94e-08
4.4599997e-08
5.3800004e-08
5.6499996e-08
6.449999e-08
8.4700005e-08
1.11800006e-07
1.312e-07
1.392e-07
1.4460001e-07
1.6170002e-07
1.884e-07
2.1099999e-07
2.258e-07
2.4339997e-07
2.686e-07
2.949e-07
3.09e-07
3.1550002e-07
3.22e-07
3.326e-07
3.3869998e-07
3.3230003e-07
3.181e-07
2.9750004e-07
2.7239997e-07
2.361e-07
1.93e-07
1.4380001e-07
8.66e-08
2.6299999e-08
-3.17e-08
-7.6700005e-08
-1.064e-07
-1.339e-07
-1.6519999e-07
-1.9149999e-07
-2.007e-07
-1.9720002e-07
-1.9380002e-07
-1.945e-07
-2.0219998e-07
-2.1289999e-07
-2.2619999e-07
-2.3800003e-07
-2.3730001e-07
-2.2540002e-07
-2.0939999e-07
-2.033e-07
-2.045e-07
-2.037e-07
-2.01e-07
-1.999e-07
-2.026e-07
-2.037e-07
-1.9720002e-07
-1.835e-07
-1.759e-07
-1.7849999e-07
-1.858e-07
-1.923e-07
-1.945e-07
-1.9380002e-07
-1.9380002e-07
-1.9570001e-07
-1.98e-07
-1.999e-07
-2.0139998e-07
-1.991e-07
-1.923e-07
-1.839e-07
-1.823e-07
-1.862e-07
-1.8690001e-07
-1.835e-07
-1.8040001e-07
-1.8040001e-07
-1.8200002e-07
-1.812e-07
-1.7970001e-07
-1.7699999e-07
-1.766e-07
-1.72e-07
-1.663e-07
-1.6170002e-07
-1.598e-07
-1.545e-07
-1.4759999e-07
-1.4380001e-07
-1.453e-07
-1.488e-07
-1.4839999e-07
-1.419e-07
-1.3660001e-07
-1.347e-07
-1.3619999e-07
-1.343e-07
-1.274e-07
-1.183e-07
-1.15999995e-07
-1.209e-07
-1.266e-07
-1.259e-07
-1.1900001e-07
-1.148e-07
-1.144e-07
-1.14100004e-07
-1.0760001e-07
-1.0109999e-07
-9.7299996e-08
-1.0109999e-07
-1.0570001e-07
-1.064e-07
-1.0030001e-07
-9.61e-08
-9.31e-08
-9e-08
-8.5799996e-08
-8.66e-08
-9.08e-08
-8.77e-08
-7.2899994e-08
-5.6800005e-08
-5.15e-08
-6.03e-08
-7.4000006e-08
-8.66e-08
-9.46e-08
-9.61e-08
-9.2700006e-08
-8.74e-08
-8.4700005e-08
-8.280001e-08
-8.13e-08
-7.9e-08
-7.74e-08
-7.55e-08
-6.7100004e-08
-5.3400008e-08
-4.4599997e-08
-2.17e-08
7.970001e-08
2.6589998e-07
4.719e-07
6.7940005e-07
8.686e-07
9.14e-07
6.855e-07
2.6589998e-07
-6.52e-08
-1.324e-07
-4.4300002e-08
-1.1800001e-08
-7.1e-08
-1.1750001e-07
-1.209e-07
-1.232e-07
-1.305e-07
-1.32e-07
-1.259e-07
-1.0949999e-07
-9.0400015e-08
-8.0899994e-08
-8.2e-08
-8.429999e-08
-7.55e-08
-6.1e-08
-4.92e-08
-4.27e-08
-3.6200003e-08
-2.17e-08
-6.1e-09
4.6e-09
1.14e-08
2.06e-08
3.59e-08
5.4900003e-08
7.4000006e-08
9.0400015e-08
1.053e-07
1.2169998e-07
1.411e-07
1.6560001e-07
1.896e-07
2.151e-07
2.415e-07
2.644e-07
2.7770002e-07
2.815e-07
2.838e-07
2.907e-07
2.983e-07
2.9679998e-07
2.808e-07
2.51e-07
2.1210002e-07
1.6670002e-07
1.16699994e-07
6.22e-08
6.1e-09
-4.3100005e-08
-8.5799996e-08
-1.2470001e-07
-1.6140001e-07
-1.919e-07
-2.151e-07
-2.3270003e-07
-2.4719998e-07
-2.548e-07
-2.5409997e-07
-2.487e-07
-2.407e-07
-2.361e-07
-2.361e-07
-2.369e-07
-2.296e-07
-2.174e-07
-2.0749998e-07
-2.0520001e-07
-2.0520001e-07
-2.026e-07
-1.945e-07
-1.9040003e-07
-1.884e-07
-1.873e-07
-1.8499999e-07
-1.8009999e-07
-1.7400001e-07
-1.671e-07
-1.6329999e-07
-1.6140001e-07
-1.587e-07
-1.5600001e-07
-1.5340001e-07
-1.5180001e-07
-1.503e-07
-1.495e-07
-1.507e-07
-1.5369999e-07
-1.5490001e-07
-1.492e-07
-1.431e-07
-1.4419999e-07
-1.5369999e-07
-1.5830001e-07
-1.514e-07
-1.3729999e-07
-1.324e-07
-1.396e-07
-1.488e-07
-1.461e-07
-1.343e-07
-1.255e-07
-1.2169998e-07
-1.2169998e-07
-1.209e-07
-1.171e-07
-1.11e-07
-1.06e-07
-1.049e-07
-1.02600005e-07
-9.380001e-08
-7.6700005e-08
-6.7500004e-08
-7.8199996e-08
-1.0340001e-07
-1.1790001e-07
-1.14100004e-07
-1.02600005e-07
-9.2700006e-08
-8.93e-08
-8.7000004e-08
-8.280001e-08
-7.6700005e-08
-7.1e-08
-6.41e-08
-5.84e-08
-5.6499996e-08
-5.7999998e-08
-6.03e-08
-5.9500007e-08
-5.3e-08
-3.8499998e-08
-2.5599999e-08
-1.4499999e-08
-5.0000004e-09
4.2e-09
1.03e-08
6.8999997e-09
-9.9e-09
-3.0899997e-08
-4.73e-08
-6.07e-08
-7.060001e-08
-6.64e-08
-4.84e-08
-2.86e-08
-2.82e-08
-4.54e-08
-5.6800005e-08
-4.04e-08
-1.41e-08
-8.8e-09
-2.59e-08
-4.12e-08
-1.22e-08
1.183e-07
3.2690002e-07
5.4779997e-07
7.7100003e-07
9.578999e-07
9.59e-07
6.6869995e-07
2.2239999e-07
-9.23e-08
-1.282e-07
-1.98e-08
1.75e-08
-3.9700005e-08
-8.93e-08
-1.064e-07
-1.1369999e-07
-1.11400006e-07
-1.019e-07
-9.54e-08
-9.99e-08
-1.0450001e-07
-9.19e-08
-6.449999e-08
-3.8099998e-08
-2.25e-08
-1.03e-08
4.2e-09
8.4e-09
-1.9e-09
-1.14e-08
1.9e-09
3.05e-08
5.42e-08
6.8300004e-08
7.74e-08
8.429999e-08
9.31e-08
1.129e-07
1.4e-07
1.7010001e-07
1.968e-07
2.193e-07
2.3730001e-07
2.4300002e-07
2.491e-07
2.7960002e-07
3.307e-07
3.6850003e-07
3.6390003e-07
3.3109998e-07
3.0980001e-07
3.082e-07
2.979e-07
2.6320004e-07
2.1439998e-07
1.5639999e-07
8.54e-08
-3.9999998e-10
-7.55e-08
-1.1369999e-07
-1.2169998e-07
-1.3660001e-07
-1.7890001e-07
-2.361e-07
-2.682e-07
-2.525e-07
-2.0640003e-07
-1.7699999e-07
-1.862e-07
-2.1860002e-07
-2.415e-07
-2.4570002e-07
-2.3039999e-07
-2.106e-07
-2.0139998e-07
-2.178e-07
-2.514e-07
-2.598e-07
-2.3500002e-07
-2.0790003e-07
-2.1589999e-07
-2.4339997e-07
-2.4759998e-07
-2.113e-07
-1.678e-07
-1.492e-07
-1.6140001e-07
-1.7890001e-07
-1.8880002e-07
-1.896e-07
-1.865e-07
-1.8080003e-07
-1.7240002e-07
-1.64e-07
-1.644e-07
-1.774e-07
-1.8770001e-07
-1.8200002e-07
-1.572e-07
-1.347e-07
-1.347e-07
-1.5600001e-07
-1.743e-07
-1.728e-07
-1.602e-07
-1.4380001e-07
-1.2049999e-07
-1.0719999e-07
-1.343e-07
-1.926e-07
-2.2239999e-07
-1.8499999e-07
-1.1900001e-07
-9.19e-08
-1.251e-07
-1.7090001e-07
-1.8080003e-07
-1.53e-07
-1.2279999e-07
-1.213e-07
-1.4759999e-07
-1.6140001e-07
-1.3079999e-07
-8.93e-08
-8.429999e-08
-1.064e-07
-1.11400006e-07
-9.16e-08
-8.280001e-08
-1.06e-07
-1.286e-07
-1.1369999e-07
-8.93e-08
-9.84e-08
-1.3500001e-07
-1.5830001e-07
-1.492e-07
-1.171e-07
-8.429999e-08
-7.25e-08
-5.7599998e-08
4.5e-08
2.7689998e-07
5.7489996e-07
8.4989995e-07
1.0387e-06
1.0387e-06
7.576e-07
2.838e-07
-1.0829999e-07
-2.1860002e-07
-1.45e-07
-1.064e-07
-1.45e-07
-1.499e-07
-1.06800016e-07
-1.02600005e-07
-1.511e-07
-1.884e-07
-1.8080003e-07
-1.545e-07
-1.4460001e-07
-1.4839999e-07
-1.3079999e-07
-7.55e-08
-2.25e-08
-2.7799999e-08
-8.280001e-08
-1.2049999e-07
-1.019e-07
-5.9500007e-08
-3.0899997e-08
-7.1999997e-09
3.05e-08
6.07e-08
5.72e-08
4.0099998e-08
5.8699996e-08
1.13300004e-07
1.6170002e-07
1.774e-07
1.732e-07
1.759e-07
2.1439998e-07
2.8110003e-07
3.292e-07
3.2580002e-07
3.0750002e-07
3.326e-07
3.9900002e-07
4.295e-07
3.693e-07
2.6589998e-07
2.167e-07
2.2280001e-07
1.991e-07
1.106e-07
1.68e-08
-2.7500002e-08
-4.4599997e-08
-9.690001e-08
-1.942e-07
-2.834e-07
-3.2580002e-07
-3.399e-07
-3.559e-07
-3.609e-07
-3.33e-07
-2.8110003e-07
-2.502e-07
-2.7660002e-07
-3.326e-07
-3.468e-07
-2.983e-07
-2.342e-07
-1.961e-07
-1.9490001e-07
-2.3540001e-07
-3.0360002e-07
-3.5249997e-07
-3.3570004e-07
-2.46e-07
-1.4269999e-07
-1.06e-07
-1.488e-07
-2.22e-07
-2.5559999e-07
-2.06e-07
-1.02600005e-07
-5.53e-08
-1.16699994e-07
-2.1170001e-07
-2.201e-07
-1.4419999e-07
-8.2e-08
-8.7000004e-08
-1.0949999e-07
-1.0069999e-07
-1.038e-07
-1.637e-07
-2.2619999e-07
-2.2159999e-07
-1.762e-07
-1.644e-07
-1.816e-07
-1.6859998e-07
-1.301e-07
-1.381e-07
-1.923e-07
-2.0409999e-07
-1.488e-07
-1.106e-07
-1.507e-07
-2.113e-07
-1.9490001e-07
-1.0069999e-07
-3.32e-08
-5.3e-08
-3.7000003e-08
1.6140001e-07
5.0389997e-07
8.6819995e-07
1.1372e-06
1.181e-06
9.0450004e-07
3.933e-07
-7.8199996e-08
-2.522e-07
-1.3580001e-07
9.9e-09
-1.53e-08
-1.492e-07
-2.399e-07
-2.193e-07
-1.2470001e-07
-5.9899996e-08
-8.16e-08
-1.4269999e-07
-1.507e-07
-7.71e-08
4.6e-09
-1.9e-09
-9.19e-08
-1.5559999e-07
-1.244e-07
-7.060001e-08
-7.3200006e-08
-7.5900005e-08
0.0
1.1369999e-07
1.472e-07
8.16e-08
2.6700004e-08
6.98e-08
1.606e-07
2.0749998e-07
1.9040003e-07
1.598e-07
1.6670002e-07
2.3000001e-07
3.029e-07
3.2269998e-07
2.9750004e-07
2.9560002e-07
3.5820005e-07
4.3260002e-07
4.356e-07
3.624e-07
2.934e-07
2.6470002e-07
2.2320002e-07
1.453e-07
9.16e-08
7.4000006e-08
1.49e-08
-1.266e-07
-2.655e-07
-3.0329997e-07
-2.7239997e-07
-2.792e-07
-3.4290002e-07
-3.7380002e-07
-3.1780002e-07
-2.3959998e-07
-2.193e-07
-2.506e-07
-2.823e-07
-2.8879998e-07
-2.9300003e-07
-3.0439998e-07
-3.0750002e-07
-2.857e-07
-2.6130002e-07
-2.674e-07
-3.1169998e-07
-3.483e-07
-3.3570004e-07
-2.7689998e-07
-2.209e-07
-2.0869999e-07
-2.3080001e-07
-2.342e-07
-1.98e-07
-1.5600001e-07
-1.5750001e-07
-1.953e-07
-2.2049998e-07
-2.0219998e-07
-1.6940001e-07
-1.7810001e-07
-2.178e-07
-2.2619999e-07
-1.7849999e-07
-1.347e-07
-1.5180001e-07
-2.0219998e-07
-1.953e-07
-1.129e-07
-4.77e-08
-8.13e-08
-1.8009999e-07
-2.4339997e-07
-2.3000001e-07
-1.858e-07
-1.579e-07
-1.507e-07
-1.568e-07
-1.7130002e-07
-1.7049999e-07
-1.2929999e-07
-7.17e-08
-4.58e-08
-7.4000006e-08
-1.2049999e-07
-1.503e-07
-1.602e-07
-1.602e-07
-1.4419999e-07
-1.305e-07
-1.4689999e-07
-1.778e-07
-1.637e-07
-8.81e-08
-1.22e-08
-6.4999996e-09
-6.7100004e-08
-1.2470001e-07
-1.3079999e-07
-9.57e-08
-6.7900004e-08
-7.25e-08
-1.06e-07
-1.4419999e-07
-1.61e-07
-1.4269999e-07
-1.099e-07
-9.2700006e-08
-9.690001e-08
-1.0450001e-07
-1.049e-07
-1.0069999e-07
-9.46e-08
-7.9e-08
-5.7999998e-08
-4.6500002e-08
-5.000001e-08
-1.98e-08
1.2890001e-07
3.9670002e-07
6.851e-07
9.377e-07
1.1154e-06
1.0807e-06
7.328e-07
2.277e-07
-1.064e-07
-1.244e-07
2.7e-09
3.05e-08
-5.2599997e-08
-1.122e-07
-1.148e-07
-1.2470001e-07
-1.472e-07
-1.5219999e-07
-1.339e-07
-9.84e-08
-6.7900004e-08
-6.07e-08
-8.05e-08
-1.049e-07
-9.99e-08
-5.91e-08
-1.11e-08
1.26e-08
1.22e-08
1.14e-08
2.4e-08
4.08e-08
5.61e-08
6.26e-08
5.3400008e-08
3.78e-08
5.46e-08
1.1790001e-07
1.965e-07
2.438e-07
2.598e-07
2.6589998e-07
2.792e-07
3.0360002e-07
3.4370004e-07
3.834e-07
4.017e-07
3.971e-07
3.9440005e-07
3.9629998e-07
3.902e-07
3.704e-07
3.5399998e-07
3.4030003e-07
2.9260002e-07
1.846e-07
5.2599997e-08
-3.55e-08
-6.03e-08
-7.2899994e-08
-1.2890001e-07
-2.193e-07
-2.747e-07
-2.5749998e-07
-2.22e-07
-2.4680003e-07
-3.193e-07
-3.529e-07
-3.147e-07
-2.6170002e-07
-2.522e-07
-2.7349998e-07
-2.808e-07
-2.75e-07
-2.9300003e-07
-3.284e-07
-3.2650001e-07
-2.6249998e-07
-1.9040003e-07
-1.7810001e-07
-2.3569999e-07
-2.9600002e-07
-2.8879998e-07
-2.3119999e-07
-1.961e-07
-2.1289999e-07
-2.4570002e-07
-2.518e-07
-2.3160003e-07
-2.1360003e-07
-2.151e-07
-2.1480001e-07
-1.999e-07
-1.812e-07
-1.823e-07
-1.968e-07
-2.0409999e-07
-1.945e-07
-1.892e-07
-2.0179999e-07
-2.106e-07
-1.961e-07
-1.762e-07
-1.675e-07
-1.6519999e-07
-1.5830001e-07
-1.568e-07
-1.682e-07
-1.7049999e-07
-1.5219999e-07
-1.3660001e-07
-1.5219999e-07
-1.8420002e-07
-1.919e-07
-1.637e-07
-1.255e-07
-1.0829999e-07
-1.129e-07
-1.1630001e-07
-1.099e-07
-1.019e-07
-1.0069999e-07
-1.0409999e-07
-1.144e-07
-1.259e-07
-1.213e-07
-1.03e-07
-9.96e-08
-1.259e-07
-1.4689999e-07
-1.1630001e-07
-5.6800005e-08
-2.7799999e-08
-4.9600004e-08
-7.060001e-08
-4.5e-08
1.26e-08
4.58e-08
2.44e-08
-5.3400008e-08
-1.488e-07
-1.919e-07
-1.431e-07
-5.15e-08
-9.9e-09
-5.6800005e-08
-1.232e-07
-1.2470001e-07
-7.3200006e-08
-4.3100005e-08
-5.3800004e-08
-6.33e-08
-5.7599998e-08
-5.91e-08
-6.87e-08
-5.91e-08
-6.8999997e-09
1.18600006e-07
3.1169998e-07
5.39e-07
8.0179996e-07
1.0605e-06
1.1226999e-06
8.274e-07
2.953e-07
-1.122e-07
-1.7849999e-07
-5.91e-08
-3.59e-08
-1.404e-07
-1.965e-07
-1.434e-07
-8.620001e-08
-8.2e-08
-9.7299996e-08
-8.54e-08
-5.61e-08
-3.9700005e-08
-4.84e-08
-6.64e-08
-6.98e-08
-5.3e-08
-3.32e-08
-2.5599999e-08
-1.91e-08
1.14e-08
6.37e-08
8.89e-08
5.7999998e-08
1.2999999e-08
1.33999984e-08
4.6200004e-08
6.6e-08
7.48e-08
1.08e-07
1.5830001e-07
1.9490001e-07
2.239e-07
2.64e-07
3.0019999e-07
3.1279998e-07
3.216e-07
3.5509998e-07
3.9900002e-07
4.196e-07
4.3490002e-07
4.6200006e-07
4.707e-07
4.185e-07
3.2650001e-07
2.4339997e-07
1.8310001e-07
1.286e-07
7.44e-08
2.59e-08
-1.33999984e-08
-5.3400008e-08
-1.0109999e-07
-1.64e-07
-2.277e-07
-2.747e-07
-2.907e-07
-2.712e-07
-2.2660001e-07
-1.9490001e-07
-2.125e-07
-2.7579998e-07
-3.4030003e-07
-3.5210002e-07
-3.1240003e-07
-2.67e-07
-2.502e-07
-2.5709997e-07
-2.701e-07
-2.6589998e-07
-2.3959998e-07
-2.1099999e-07
-2.045e-07
-2.1170001e-07
-2.0749998e-07
-1.8880002e-07
-1.728e-07
-1.766e-07
-1.8770001e-07
-1.93e-07
-1.8540001e-07
-1.648e-07
-1.404e-07
-1.381e-07
-1.717e-07
-2.235e-07
-2.422e-07
-2.0139998e-07
-1.3660001e-07
-1.106e-07
-1.2929999e-07
-1.492e-07
-1.3619999e-07
-1.0340001e-07
-8.54e-08
-1.0109999e-07
-1.3079999e-07
-1.4759999e-07
-1.408e-07
-1.27e-07
-1.301e-07
-1.5219999e-07
-1.606e-07
-1.4419999e-07
-1.3160002e-07
-1.5909998e-07
-2.0680002e-07
-2.201e-07
-1.835e-07
-1.354e-07
-1.15999995e-07
-1.263e-07
-1.3310002e-07
-1.328e-07
-1.324e-07
-1.2890001e-07
-1.2169998e-07
-1.2470001e-07
-9.16e-08
6.87e-08
3.666e-07
6.588e-07
8.450001e-07
9.571e-07
9.842e-07
8.022e-07
3.922e-07
-2.71e-08
-1.945e-07
-1.18600006e-07
-2.06e-08
-2.86e-08
-8.35e-08
-1.10200006e-07
-1.221e-07
-1.2890001e-07
-1.2279999e-07
-1.11400006e-07
-9.7999994e-08
-8.620001e-08
-7.13e-08
-6.449999e-08
-7.44e-08
-9.690001e-08
-1.019e-07
-7.3200006e-08
-3.51e-08
-1.03e-08
3.9999998e-10
1.2999999e-08
3.13e-08
4.6500002e-08
6.48e-08
8.620001e-08
9.920001e-08
1.0030001e-07
1.0760001e-07
1.408e-07
2.0219998e-07
2.651e-07
3.021e-07
3.0329997e-07
2.85e-07
2.823e-07
3.151e-07
3.681e-07
3.952e-07
3.78e-07
3.4220002e-07
3.242e-07
3.2350002e-07
3.1090002e-07
2.495e-07
1.27e-07
-2.06e-08
-1.209e-07
-1.266e-07
-8.54e-08
-9.54e-08
-1.911e-07
-2.9750004e-07
-3.284e-07
-2.838e-07
-2.335e-07
-2.285e-07
-2.605e-07
-2.953e-07
-3.0329997e-07
-2.861e-07
-2.674e-07
-2.5859998e-07
-2.487e-07
-2.48e-07
-2.7660002e-07
-3.017e-07
-2.678e-07
-1.8420002e-07
-1.286e-07
-1.453e-07
-2.029e-07
-2.449e-07
-2.529e-07
-2.3160003e-07
-1.839e-07
-1.202e-07
-9.84e-08
-1.411e-07
-1.9380002e-07
-1.835e-07
-1.301e-07
-1.144e-07
-1.579e-07
-2.0520001e-07
-1.968e-07
-1.511e-07
-1.282e-07
-1.461e-07
-1.728e-07
-1.846e-07
-1.7849999e-07
-1.5639999e-07
-1.301e-07
-1.1790001e-07
-1.301e-07
-1.453e-07
-1.3660001e-07
-1.106e-07
-9.96e-08
-1.18600006e-07
-1.4269999e-07
-1.4689999e-07
-1.2169998e-07
-9.350001e-08
-8.8499995e-08
-9.77e-08
-9.7999994e-08
-9.08e-08
-9.61e-08
-1.209e-07
-1.415e-07
-1.2890001e-07
-8.5799996e-08
-5.8699996e-08
-7.36e-08
-1.0450001e-07
-1.0409999e-07
-7.36e-08
-5.9899996e-08
-8.2e-08
-1.0219999e-07
-8.620001e-08
-5.9899996e-08
-6.29e-08
-9e-08
-8.960001e-08
-4.5e-08
-1.9e-09
-5.0000004e-09
-4.2e-08
-6.64e-08
-5.4900003e-08
-3.13e-08
-2.7500002e-08
-4.4300002e-08
-5.15e-08
-4.6500002e-08
-4.6900006e-08
-5.19e-08
-4.58e-08
-2.6299999e-08
-3.9999998e-10
1.53e-08
-2.7e-09
-4.92e-08
-7.6700005e-08
-3.93e-08
2.7799999e-08
3.2e-08
-5.4900003e-08
-1.431e-07
-1.4380001e-07
-7.25e-08
-1.56e-08
-1.22e-08
-3.24e-08
-3.93e-08
-2.4800002e-08
-9.2e-09
-1.49e-08
-3.55e-08
-3.8899998e-08
-1.0700002e-08
2.5599999e-08
2.37e-08
-1.03e-08
-1.98e-08
2.4e-08
7.02e-08
6.7900004e-08
2.29e-08
-2.4800002e-08
-5.19e-08
-4.6500002e-08
-1.2999999e-08
2.59e-08
3.13e-08
-1.33999984e-08
-5.8699996e-08
-5.19e-08
-4.6e-09
2.6700004e-08
1.37e-08
-3.6600003e-08
-8.89e-08
-9.42e-08
-3.93e-08
2.7799999e-08
8.4700005e-08
1.9e-07
3.891e-07
6.413e-07
8.9650007e-07
1.0857e-06
1.0647e-06
7.3700005e-07
2.502e-07
-8.05e-08
-1.1790001e-07
-3.9700005e-08
-5.2300003e-08
-1.194e-07
-1.091e-07
-5.9899996e-08
-7.71e-08
-1.45e-07
-1.736e-07
-1.3619999e-07
-8.2e-08
-6.1e-08
-7.060001e-08
-8.429999e-08
-8.280001e-08
-7.209999e-08
-5.61e-08
-2.25e-08
1.72e-08
2.6299999e-08
-1.33999984e-08
-5.4900003e-08
-4.23e-08
1.68e-08
6.7900004e-08
7.970001e-08
7.55e-08
8.429999e-08
1.06800016e-07
1.312e-07
1.5490001e-07
1.7890001e-07
1.98e-07
2.1320001e-07
2.384e-07
2.842e-07
3.4520002e-07
3.8829998e-07
3.933e-07
3.7689998e-07
3.7420003e-07
3.841e-07
3.784e-07
3.475e-07
3.151e-07
2.941e-07
2.6249998e-07
2.007e-07
1.202e-07
4.6200004e-08
-5.7e-09
-3.13e-08
-4.5e-08
-8.0899994e-08
-1.61e-07
-2.5559999e-07
-3.071e-07
-2.979e-07
-2.773e-07
-2.846e-07
-3.0479998e-07
-3.006e-07
-2.773e-07
-2.6589998e-07
-2.7689998e-07
-2.846e-07
-2.7389999e-07
-2.674e-07
-2.842e-07
-2.972e-07
-2.8110003e-07
-2.4339997e-07
-2.1360003e-07
-2.007e-07
-1.9040003e-07
-1.778e-07
-1.858e-07
-2.1969998e-07
-2.506e-07
-2.4719998e-07
-2.2049998e-07
-1.9720002e-07
-1.961e-07
-2.083e-07
-2.1589999e-07
-2.1969998e-07
-2.3270003e-07
-2.4300002e-07
-2.2540002e-07
-1.732e-07
-1.213e-07
-1.087e-07
-1.324e-07
-1.5600001e-07
-1.5559999e-07
-1.4569999e-07
-1.5639999e-07
-1.873e-07
-2.1320001e-07
-2.193e-07
-2.235e-07
-2.3270003e-07
-2.2809999e-07
-1.976e-07
-1.553e-07
-1.209e-07
-1.099e-07
-1.3580001e-07
-1.961e-07
-2.399e-07
-2.1320001e-07
-1.4839999e-07
-1.3079999e-07
-1.7049999e-07
-1.9490001e-07
-1.64e-07
-1.15999995e-07
-8.8499995e-08
-7.060001e-08
-4.08e-08
3.9700005e-08
2.285e-07
5.173e-07
8.3620006e-07
1.1192001e-06
1.2398e-06
1.0429e-06
5.352e-07
9.2e-09
-2.1480001e-07
-1.171e-07
2.4e-08
8e-09
-9.65e-08
-1.5909998e-07
-1.812e-07
-1.9069999e-07
-1.812e-07
-1.5340001e-07
-1.297e-07
-1.213e-07
-1.27e-07
-1.335e-07
-1.221e-07
-9.350001e-08
-6.87e-08
-6.48e-08
-7.1e-08
-7.8199996e-08
-7.51e-08
-5.53e-08
-9.9e-09
4.4599997e-08
7.74e-08
8.0899994e-08
9.16e-08
1.396e-07
1.976e-07
2.319e-07
2.4719998e-07
2.7309997e-07
3.136e-07
3.3680004e-07
3.3039998e-07
3.246e-07
3.5440002e-07
4.1429996e-07
4.684e-07
4.8410004e-07
4.6200006e-07
4.166e-07
3.5739998e-07
3.014e-07
2.4719998e-07
1.7400001e-07
7.48e-08
-2.44e-08
-9.0400015e-08
-1.1900001e-07
-1.3850001e-07
-1.8770001e-07
-2.594e-07
-3.082e-07
-3.113e-07
-2.964e-07
-3.0669997e-07
-3.4030003e-07
-3.5780002e-07
-3.51e-07
-3.632e-07
-4.0819998e-07
-4.0779997e-07
-3.059e-07
-1.7970001e-07
-1.675e-07
-2.754e-07
-3.6199998e-07
-3.2620002e-07
-2.235e-07
-1.762e-07
-2.151e-07
-2.655e-07
-2.712e-07
-2.5709997e-07
-2.5409997e-07
-2.426e-07
-2.125e-07
-1.98e-07
-2.1630001e-07
-2.4989998e-07
-2.552e-07
-2.346e-07
-2.2619999e-07
-2.3000001e-07
-2.0520001e-07
-1.6140001e-07
-1.682e-07
-2.2889999e-07
-2.5859998e-07
-2.06e-07
-1.18600006e-07
-8.05e-08
-1.06e-07
-1.495e-07
-1.846e-07
-2.178e-07
-2.361e-07
-2.22e-07
-1.926e-07
-1.8080003e-07
-1.8880002e-07
-1.862e-07
-1.64e-07
-1.511e-07
-1.587e-07
-1.682e-07
-1.6519999e-07
-1.5260001e-07
-1.32e-07
-1.1900001e-07
-1.354e-07
-1.774e-07
-1.987e-07
-1.637e-07
-8.4700005e-08
3.8899998e-08
2.342e-07
4.864e-07
7.5300005e-07
9.636e-07
9.815002e-07
7.034e-07
2.201e-07
-1.961e-07
-3.2390003e-07
-2.0139998e-07
-6.03e-08
-5.8699996e-08
-1.423e-07
-2.0219998e-07
-1.9339998e-07
-1.2929999e-07
-6.56e-08
-4.6500002e-08
-5.5700003e-08
-6.56e-08
-7.55e-08
-9.84e-08
-1.194e-07
-1.16699994e-07
-7.55e-08
-1.26e-08
1.14e-08
-5.6800005e-08
-1.602e-07
-1.598e-07
-6.1e-09
1.7010001e-07
2.033e-07
8.51e-08
-2.1400004e-08
9.2e-09
1.3079999e-07
2.319e-07
2.525e-07
2.178e-07
1.9380002e-07
2.209e-07
2.853e-07
3.597e-07
4.253e-07
4.5320002e-07
4.2879995e-07
3.719e-07
3.1090002e-07
2.728e-07
2.598e-07
2.529e-07
2.323e-07
1.7849999e-07
7.7799996e-08
-4.16e-08
-1.2470001e-07
-1.488e-07
-1.5219999e-07
-1.7010001e-07
-1.968e-07
-2.3379998e-07
-3.029e-07
-3.7959998e-07
-3.9140002e-07
-3.1240003e-07
-2.2930003e-07
-2.3540001e-07
-3.1279998e-07
-3.5820005e-07
-3.2269998e-07
-2.537e-07
-2.1210002e-07
-2.209e-07
-2.674e-07
-3.1240003e-07
-3.0669997e-07
-2.369e-07
-1.495e-07
-1.339e-07
-2.1439998e-07
-2.857e-07
-2.3959998e-07
-1.1900001e-07
-6.22e-08
-1.2359999e-07
-2.102e-07
-2.22e-07
-1.7400001e-07
-1.503e-07
-1.6290001e-07
-1.728e-07
-1.648e-07
-1.541e-07
-1.472e-07
-1.4689999e-07
-1.511e-07
-1.431e-07
-1.183e-07
-1.11400006e-07
-1.5830001e-07
-2.323e-07
-2.502e-07
-1.8770001e-07
-1.15999995e-07
-1.11800006e-07
-1.5369999e-07
-1.6519999e-07
-1.209e-07
-7.7799996e-08
-9.08e-08
-1.347e-07
-1.488e-07
-1.209e-07
-9.350001e-08
-1.064e-07
-1.4380001e-07
-1.5830001e-07
-1.2929999e-07
-9.77e-08
-1.202e-07
-1.8770001e-07
-2.209e-07
-1.7049999e-07
-7.2899994e-08
-1.87e-08
-5.53e-08
-1.377e-07
-1.7699999e-07
-1.3660001e-07
-5.7999998e-08
-5.0000004e-09
-2.7e-09
-3.17e-08
-5.72e-08
-6.9399995e-08
-7.1e-08
-5.2599997e-08
-1.11e-08
2.4800002e-08
2.6299999e-08
-9.5e-09
-6.48e-08
-1.064e-07
-1.099e-07
-8.54e-08
-7.5900005e-08
-1.02600005e-07
-1.354e-07
-1.209e-07
-6.29e-08
-2.37e-08
-4.16e-08
-8.16e-08
-8.5799996e-08
-3.8899998e-08
1.2999999e-08
1.75e-08
-1.9e-09
5.19e-08
2.319e-07
4.826e-07
7.378e-07
9.605e-07
1.0113e-06
7.45e-07
2.5409997e-07
-1.274e-07
-1.759e-07
-2.6700004e-08
4.04e-08
-4.08e-08
-1.274e-07
-1.408e-07
-1.263e-07
-1.18600006e-07
-1.129e-07
-1.091e-07
-1.0149999e-07
-9.57e-08
-9.920001e-08
-9.12e-08
-5.1099995e-08
-7.1999997e-09
-1.41e-08
-6.9e-08
-1.02600005e-07
-7.3200006e-08
-1.49e-08
1.79e-08
2.1400004e-08
2.44e-08
3.8899998e-08
5.2300003e-08
6.1799994e-08
7.060001e-08
8.429999e-08
1.148e-07
1.61e-07
2.102e-07
2.522e-07
2.872e-07
3.17e-07
3.4180002e-07
3.7610002e-07
4.2799996e-07
4.765e-07
4.799e-07
4.322e-07
3.7420003e-07
3.529e-07
3.5780002e-07
3.365e-07
2.6089998e-07
1.587e-07
9e-08
7.1e-08
4.23e-08
-4.73e-08
-1.6940001e-07
-2.4410002e-07
-2.487e-07
-2.3959998e-07
-2.666e-07
-3.1200003e-07
-3.288e-07
-3.0669997e-07
-2.819e-07
-2.7239997e-07
-2.762e-07
-2.834e-07
-2.789e-07
-2.522e-07
-2.239e-07
-2.296e-07
-2.747e-07
-3.147e-07
-3.0860002e-07
-2.754e-07
-2.728e-07
-2.987e-07
-2.995e-07
-2.495e-07
-1.896e-07
-1.682e-07
-1.835e-07
-1.98e-07
-2.0179999e-07
-2.045e-07
-2.1099999e-07
-2.1099999e-07
-2.026e-07
-1.926e-07
-1.9069999e-07
-1.968e-07
-2.045e-07
-2.0710002e-07
-2.083e-07
-2.0680002e-07
-2.0179999e-07
-1.9e-07
-1.732e-07
-1.5909998e-07
-1.5559999e-07
-1.568e-07
-1.5559999e-07
-1.4839999e-07
-1.4380001e-07
-1.5180001e-07
-1.7090001e-07
-1.865e-07
-1.8880002e-07
-1.8040001e-07
-1.7130002e-07
-1.6519999e-07
-1.595e-07
-1.5340001e-07
-1.488e-07
-1.45e-07
-1.4269999e-07
-1.434e-07
-1.423e-07
-1.3660001e-07
-1.301e-07
-1.2779999e-07
-1.209e-07
-1.053e-07
-8.8499995e-08
-5.9500007e-08
4.3500002e-08
2.483e-07
4.776e-07
6.71e-07
8.274e-07
8.7430004e-07
6.7900004e-07
2.7430002e-07
-8.74e-08
-1.8420002e-07
-8.35e-08
-1.26e-08
-5.1099995e-08
-9.42e-08
-9.16e-08
-1.0069999e-07
-1.335e-07
-1.4689999e-07
-1.2169998e-07
-8.24e-08
-6.48e-08
-8.0899994e-08
-1.0450001e-07
-1.11e-07
-9.19e-08
-6.48e-08
-3.93e-08
-2.52e-08
-1.53e-08
-9.9e-09
-4.6e-09
2.3e-09
2.7799999e-08
7.44e-08
1.1979999e-07
1.347e-07
1.1979999e-07
1.1790001e-07
1.507e-07
1.953e-07
2.247e-07
2.4189998e-07
2.7049998e-07
3.113e-07
3.399e-07
3.517e-07
3.586e-07
3.7540002e-07
3.922e-07
3.975e-07
3.757e-07
3.2690002e-07
2.636e-07
2.0179999e-07
1.404e-07
7.8199996e-08
1.68e-08
-4.08e-08
-9.7299996e-08
-1.5559999e-07
-2.1099999e-07
-2.4759998e-07
-2.6210003e-07
-2.67e-07
-2.7239997e-07
-2.8e-07
-2.861e-07
-2.8760002e-07
-2.831e-07
-2.789e-07
-2.7810003e-07
-2.8110003e-07
-2.819e-07
-2.773e-07
-2.666e-07
-2.5749998e-07
-2.5330002e-07
-2.514e-07
-2.4719998e-07
-2.3959998e-07
-2.3270003e-07
-2.3119999e-07
-2.323e-07
-2.319e-07
-2.2739998e-07
-2.258e-07
-2.22e-07
-2.1899999e-07
-2.201e-07
-2.251e-07
-2.2739998e-07
-2.2239999e-07
-2.1210002e-07
-2.0520001e-07
-2.0139998e-07
-1.976e-07
-1.961e-07
-1.9490001e-07
-1.965e-07
-1.9720002e-07
-2.0139998e-07
-2.029e-07
-1.919e-07
-1.663e-07
-1.411e-07
-1.343e-07
-1.453e-07
-1.572e-07
-1.598e-07
-1.5639999e-07
-1.5600001e-07
-1.541e-07
-1.4460001e-07
-1.328e-07
-1.2779999e-07
-1.301e-07
-1.328e-07
-1.32e-07
-1.266e-07
-1.194e-07
-1.10200006e-07
-1.0450001e-07
-1.049e-07
-1.099e-07
-1.106e-07
-1.087e-07
-1.053e-07
-1.0219999e-07
-1.0149999e-07
-1.0450001e-07
-1.091e-07
-1.0760001e-07
-9.99e-08
-8.74e-08
-7.6700005e-08
-7.3200006e-08
-7.44e-08
-7.1e-08
-6.03e-08
-5.000001e-08
-4.92e-08
-5.9500007e-08
-7.6300005e-08
-8.81e-08
-8.7000004e-08
-6.98e-08
-4.4300002e-08
-2.94e-08
-4.0099998e-08
-6.449999e-08
-7.55e-08
-5.72e-08
-2.59e-08
-1.03e-08
-2.37e-08
-4.9600004e-08
-6.1799994e-08
-5.4900003e-08
-4.12e-08
-2.98e-08
-2.4800002e-08
-1.4499999e-08
4.2e-09
2.2099998e-08
2.2099998e-08
1.37e-08
2.6700004e-08
6.1399994e-08
7.4000006e-08
3.01e-08
-3.6200003e-08
-7.17e-08
-5.53e-08
-1.6e-08
4.6e-09
-3.3999998e-09
-2.3299998e-08
-3.6600003e-08
-3.28e-08
-2.02e-08
-8e-09
0.0
8.8e-09
1.14e-08
1.1e-09
-1.2999999e-08
2.94e-08
1.8200002e-07
4.124e-07
6.577e-07
9.346e-07
1.1958999e-06
1.2344001e-06
9.0219993e-07
3.635e-07
-1.91e-08
-8.0899994e-08
6.8999997e-09
1.9500002e-08
-4.58e-08
-8.7000004e-08
-9.31e-08
-1.019e-07
-1.11400006e-07
-1.13300004e-07
-1.0719999e-07
-9.42e-08
-8.35e-08
-7.6700005e-08
-7.25e-08
-6.26e-08
-4.92e-08
-3.93e-08
-3.32e-08
-2.52e-08
-1.14e-08
-3.9999998e-10
9.9e-09
2.25e-08
4.04e-08
6.03e-08
7.74e-08
9.19e-08
1.064e-07
1.2359999e-07
1.415e-07
1.644e-07
1.942e-07
2.277e-07
2.5709997e-07
2.8799997e-07
3.2730003e-07
3.67e-07
3.948e-07
4.059e-07
4.1159996e-07
4.108e-07
3.952e-07
3.6620003e-07
3.3800004e-07
3.159e-07
2.907e-07
2.4719998e-07
1.8690001e-07
1.16699994e-07
4.88e-08
-1.22e-08
-6.52e-08
-1.11800006e-07
-1.5639999e-07
-1.9339998e-07
-2.2159999e-07
-2.415e-07
-2.552e-07
-2.6210003e-07
-2.686e-07
-2.7349998e-07
-2.804e-07
-2.831e-07
-2.7960002e-07
-2.7389999e-07
-2.7160002e-07
-2.7049998e-07
-2.682e-07
-2.602e-07
-2.506e-07
-2.422e-07
-2.346e-07
-2.3160003e-07
-2.3309998e-07
-2.319e-07
-2.1860002e-07
-1.991e-07
-1.8420002e-07
-1.7699999e-07
-1.7049999e-07
-1.602e-07
-1.4800001e-07
-1.4569999e-07
-1.511e-07
-1.6140001e-07
-1.72e-07
-1.835e-07
-1.9840002e-07
-2.0869999e-07
-2.083e-07
-1.976e-07
-1.862e-07
-1.8499999e-07
-1.911e-07
-1.968e-07
-1.945e-07
-1.892e-07
-1.8420002e-07
-1.8080003e-07
-1.7699999e-07
-1.7699999e-07
-1.7890001e-07
-1.774e-07
-1.698e-07
-1.595e-07
-1.5180001e-07
-1.507e-07
-1.507e-07
-1.461e-07
-1.4e-07
-1.301e-07
-1.2359999e-07
-1.1790001e-07
-1.15199995e-07
-1.129e-07
-1.0949999e-07
-1.0570001e-07
-1.038e-07
-1.038e-07
-1.0030001e-07
-9.2700006e-08
-8.77e-08
-8.89e-08
-9.31e-08
-9.54e-08
-9.0400015e-08
-8.39e-08
-8.13e-08
-8.35e-08
-8.54e-08
-8.2e-08
-7.5900005e-08
-6.9399995e-08
-6.7900004e-08
-6.87e-08
-6.68e-08
-6.52e-08
-6.41e-08
-6.56e-08
-6.52e-08
-5.6800005e-08
-4.4599997e-08
-3.8899998e-08
-4.2e-08
-5.04e-08
-5.42e-08
-5.000001e-08
-4.3500002e-08
-4.08e-08
-3.8899998e-08
-3.36e-08
-3.13e-08
-3.24e-08
-3.51e-08
-3.4299998e-08
-3.05e-08
-3.0899997e-08
-3.36e-08
-3.78e-08
-3.59e-08
-3.17e-08
-2.7799999e-08
-2.7500002e-08
-2.8999999e-08
-3.01e-08
-2.86e-08
-2.4800002e-08
-2.06e-08
-2.1e-08
-2.44e-08
-2.44e-08
-2.17e-08
-2.02e-08
-2.3299998e-08
-2.37e-08
-1.79e-08
-1.2999999e-08
-1.41e-08
-1.72e-08
-1.4499999e-08
-8e-09
-6.8999997e-09
-1.33999984e-08
-1.79e-08
-1.53e-08
-1.0700002e-08
-8.8e-09
-1.0700002e-08
-1.1800001e-08
-9.2e-09
-5.0000004e-09
-2.3e-09
2.7e-09
6.1e-09
5.3000004e-09
1.1e-09
-1.1e-09
-1.1e-09
0.0
0.0
-1.1e-09
-1.5e-09
-1.1e-09
-2.7e-09
-4.6e-09
-4.2e-09
-7.9999996e-10
3.8e-09
5.7e-09
5.0000004e-09
3.8e-09
2.7e-09
3.8e-09
7.1999997e-09
1.0700002e-08
9.2e-09
4.6e-09
2.7e-09
3.3999998e-09
6.1e-09
1.11e-08
1.4499999e-08
1.26e-08
8.4e-09
5.7e-09
8e-09
1.4499999e-08
1.75e-08
1.72e-08
1.91e-08
2.1e-08
1.98e-08
2.1e-08
3.4299998e-08
5.42e-08
6.41e-08
5.4900003e-08
2.7799999e-08
7.9999996e-10
-1.6e-08
-2.02e-08
-1.91e-08
-1.72e-08
-1.41e-08
-1.41e-08
-1.4499999e-08
-1.14e-08
-6.1e-09
-3.9999998e-10
1.1e-09
3.3999998e-09
9.5e-09
6.9e-08
2.388e-07
4.7490002e-07
6.92e-07
8.789e-07
1.0044e-06
9.3919994e-07
6.126e-07
1.762e-07
-9.57e-08
-1.0450001e-07
-1.0700002e-08
3.9999998e-10
-5.8699996e-08
-8.93e-08
-9.380001e-08
-9.7299996e-08
-1.0149999e-07
-1.019e-07
-1.038e-07
-1.0570001e-07
-1.038e-07
-9.57e-08
-8.32e-08
-6.9399995e-08
-6.07e-08
-5.04e-08
-4.08e-08
-3.01e-08
-2.06e-08
-1.26e-08
-1.5e-09
1.14e-08
2.7500002e-08
4.23e-08
5.5700003e-08
7.25e-08
9.16e-08
1.122e-07
1.274e-07
1.408e-07
1.579e-07
1.8040001e-07
2.033e-07
2.247e-07
2.4410002e-07
2.636e-07
2.831e-07
2.991e-07
3.1090002e-07
3.1390002e-07
3.1240003e-07
3.0439998e-07
2.903e-07
2.7049998e-07
2.48e-07
2.174e-07
1.7849999e-07
1.301e-07
7.71e-08
2.1e-08
-3.36e-08
-8.39e-08
-1.202e-07
-1.4650001e-07
-1.6940001e-07
-1.892e-07
-1.9950001e-07
-2.0139998e-07
-1.991e-07
-2.0219998e-07
-2.1360003e-07
-2.296e-07
-2.4570002e-07
-2.5749998e-07
-2.6170002e-07
-2.5859998e-07
-2.518e-07
-2.453e-07
-2.388e-07
-2.3569999e-07
-2.346e-07
-2.3730001e-07
-2.392e-07
-2.3800003e-07
-2.3119999e-07
-2.2540002e-07
-2.2619999e-07
-2.3309998e-07
-2.377e-07
-2.388e-07
-2.3500002e-07
-2.335e-07
-2.3379998e-07
-2.3379998e-07
-2.323e-07
-2.3080001e-07
-2.277e-07
-2.27e-07
-2.2320002e-07
-2.1899999e-07
-2.1480001e-07
-2.1320001e-07
-2.1360003e-07
-2.0900002e-07
-2.0029998e-07
-1.919e-07
-1.873e-07
-1.8420002e-07
-1.7810001e-07
-1.6900002e-07
-1.6290001e-07
-1.6560001e-07
-1.736e-07
-1.766e-07
-1.698e-07
-1.6140001e-07
-1.598e-07
-1.6670002e-07
-1.751e-07
-1.778e-07
-1.747e-07
-1.6900002e-07
-1.61e-07
-1.541e-07
-1.507e-07
-1.5260001e-07
-1.5639999e-07
-1.587e-07
-1.606e-07
-1.5909998e-07
-1.553e-07
-1.5180001e-07
-1.4839999e-07
-1.4759999e-07
-1.4650001e-07
-1.419e-07
-1.369e-07
-1.324e-07
-1.282e-07
-1.232e-07
-1.209e-07
-1.202e-07
-1.15599995e-07
-1.087e-07
-1.0219999e-07
-9.920001e-08
-9.57e-08
-9.08e-08
-8.5799996e-08
-8.35e-08
-8.35e-08
-8.32e-08
-8.05e-08
-7.55e-08
-7.02e-08
-6.68e-08
-6.68e-08
-6.7900004e-08
-6.9e-08
-6.9e-08
-6.87e-08
-6.52e-08
-6.1e-08
-6.03e-08
-6.1e-08
-6.22e-08
-6.07e-08
-5.6800005e-08
-5.4900003e-08
-5.6499996e-08
-5.7999998e-08
-5.8699996e-08
-5.84e-08
-5.7599998e-08
-5.6800005e-08
-5.61e-08
-5.42e-08
-5.000001e-08
-4.6900006e-08
-4.58e-08
-4.6200004e-08
-4.77e-08
-4.81e-08
-4.6500002e-08
-4.6200004e-08
-4.6900006e-08
-4.9600004e-08
-4.81e-08
-4.6200004e-08
-4.08e-08
-3.51e-08
-3.55e-08
-4.0099998e-08
-4.3900002e-08
-4.3500002e-08
-3.93e-08
-3.51e-08
-3.55e-08
-3.8899998e-08
-4.12e-08
-3.78e-08
-3.55e-08
-3.4299998e-08
-3.4699998e-08
-3.2e-08
-2.8999999e-08
-2.59e-08
-2.6299999e-08
-2.86e-08
-2.8999999e-08
-2.6700004e-08
-2.37e-08
-2.3299998e-08
-2.4e-08
-2.4800002e-08
-2.3299998e-08
-2.2099998e-08
-2.1400004e-08
-2.4e-08
-2.7500002e-08
-2.8999999e-08
-2.82e-08
-2.71e-08
-2.59e-08
-2.59e-08
-2.6700004e-08
-2.44e-08
-2.25e-08
-2.3299998e-08
-2.5599999e-08
-2.6299999e-08
-2.6299999e-08
-2.7799999e-08
-3.05e-08
-2.94e-08
-2.6299999e-08
-2.37e-08
-2.6700004e-08
-3.32e-08
-3.55e-08
-3.01e-08
-2.4e-08
-2.02e-08
-1.87e-08
-1.22e-08
3.8e-09
2.1400004e-08
2.86e-08
1.72e-08
-5.3000004e-09
-2.7500002e-08
-4.0099998e-08
-4.3100005e-08
-4.16e-08
-3.6600003e-08
-3.59e-08
-3.7000003e-08
-4.2e-08
-4.23e-08
-4.0099998e-08
-3.4299998e-08
-3.17e-08
-3.8899998e-08
-1.68e-08
1.0760001e-07
3.319e-07
5.8290004e-07
8.4719994e-07
1.1230001e-06
1.2428001e-06
1.0063e-06
4.772e-07
5.7e-09
-1.4269999e-07
-5.9500007e-08
-9.2e-09
-6.98e-08
-1.2929999e-07
-1.369e-07
-1.343e-07
-1.381e-07
-1.3889999e-07
-1.339e-07
-1.24e-07
-1.13300004e-07
-1.0409999e-07
-9.7999994e-08
-9.350001e-08
-8.93e-08
-8.429999e-08
-7.44e-08
-6.1399994e-08
-4.88e-08
-3.59e-08
-2.44e-08
-1.26e-08
-2.3e-09
1.37e-08
3.24e-08
5.04e-08
6.449999e-08
7.970001e-08
9.7999994e-08
1.221e-07
1.488e-07
1.751e-07
1.9950001e-07
2.2320002e-07
2.4570002e-07
2.762e-07
3.1090002e-07
3.4290002e-07
3.643e-07
3.8299999e-07
4.0439997e-07
4.261e-07
4.337e-07
4.2340002e-07
3.941e-07
3.49e-07
2.85e-07
2.098e-07
1.3619999e-07
7.25e-08
1.11e-08
-4.88e-08
-1.0409999e-07
-1.511e-07
-1.9339998e-07
-2.3309998e-07
-2.6470002e-07
-2.872e-07
-2.979e-07
-3.017e-07
-3.063e-07
-3.1090002e-07
-3.1430002e-07
-3.162e-07
-3.151e-07
-3.0779998e-07
-2.979e-07
-2.903e-07
-2.872e-07
-2.8760002e-07
-2.853e-07
-2.7770002e-07
-2.674e-07
-2.598e-07
-2.5559999e-07
-2.525e-07
-2.4339997e-07
-2.3119999e-07
-2.235e-07
-2.2159999e-07
-2.1630001e-07
-2.0029998e-07
-1.8040001e-07
-1.6670002e-07
-1.637e-07
-1.644e-07
-1.6560001e-07
-1.659e-07
-1.6519999e-07
-1.675e-07
-1.762e-07
-1.8690001e-07
-1.9339998e-07
-1.9490001e-07
-1.945e-07
-1.945e-07
-1.8809999e-07
-1.7849999e-07
-1.728e-07
-1.762e-07
-1.839e-07
-1.892e-07
-1.896e-07
-1.8200002e-07
-1.682e-07
-1.572e-07
-1.5600001e-07
-1.5750001e-07
-1.514e-07
-1.408e-07
-1.3580001e-07
-1.408e-07
-1.419e-07
-1.377e-07
-1.27e-07
-1.15199995e-07
-1.053e-07
-1.0030001e-07
-1.0149999e-07
-1.0340001e-07
-9.99e-08
-9.42e-08
-9.23e-08
-9.2700006e-08
-9.12e-08
-8.35e-08
-7.25e-08
-5.7999998e-08
-3.78e-08
-1.03e-08
7.970001e-08
3.1169998e-07
6.432e-07
9.388e-07
1.0944001e-06
1.0426e-06
7.553e-07
3.147e-07
-7.13e-08
-2.1860002e-07
-1.3619999e-07
-1.87e-08
-1.22e-08
-6.8300004e-08
-9.42e-08
-9.46e-08
-9.61e-08
-1.0149999e-07
-1.06e-07
-1.019e-07
-9.19e-08
-7.970001e-08
-7.060001e-08
-5.9500007e-08
-4.12e-08
-2.3299998e-08
-1.0700002e-08
-1.1e-09
5.3000004e-09
9.2e-09
1.0700002e-08
1.72e-08
3.01e-08
4.84e-08
6.7500004e-08
8.7000004e-08
1.099e-07
1.3619999e-07
1.621e-07
1.9339998e-07
2.3540001e-07
2.8e-07
3.1780002e-07
3.5249997e-07
3.86e-07
4.1499996e-07
4.3490002e-07
4.4479998e-07
4.5050004e-07
4.5430002e-07
4.494e-07
4.261e-07
3.8679997e-07
3.319e-07
2.598e-07
1.755e-07
8.5799996e-08
3.1000003e-09
-6.98e-08
-1.32e-07
-1.846e-07
-2.3000001e-07
-2.663e-07
-2.922e-07
-3.0750002e-07
-3.1390002e-07
-3.201e-07
-3.2580002e-07
-3.3000003e-07
-3.3109998e-07
-3.284e-07
-3.2580002e-07
-3.2650001e-07
-3.254e-07
-3.181e-07
-3.059e-07
-2.937e-07
-2.857e-07
-2.7960002e-07
-2.754e-07
-2.6930002e-07
-2.6210003e-07
-2.548e-07
-2.491e-07
-2.422e-07
-2.3119999e-07
-2.2049998e-07
-2.155e-07
-2.167e-07
-2.1439998e-07
-2.0790003e-07
-2.0409999e-07
-2.06e-07
-2.0869999e-07
-2.06e-07
-1.9950001e-07
-1.93e-07
-1.8880002e-07
-1.8809999e-07
-1.9040003e-07
-1.926e-07
-1.919e-07
-1.8770001e-07
-1.8310001e-07
-1.7970001e-07
-1.7849999e-07
-1.759e-07
-1.7699999e-07
-1.778e-07
-1.747e-07
-1.659e-07
-1.5600001e-07
-1.492e-07
-1.4839999e-07
-1.5180001e-07
-1.5340001e-07
-1.511e-07
-1.4419999e-07
-1.3660001e-07
-1.3079999e-07
-1.266e-07
-1.2470001e-07
-1.2359999e-07
-1.232e-07
-1.213e-07
-1.1900001e-07
-1.15999995e-07
-1.12500004e-07
-1.0949999e-07
-1.08e-07
-1.0719999e-07
-1.0719999e-07
-1.0340001e-07
-9.7299996e-08
-9.2700006e-08
-9.08e-08
-9e-08
-8.74e-08
-8.620001e-08
-8.89e-08
-9.54e-08
-9.920001e-08
-9.61e-08
-8.960001e-08
-8.77e-08
-8.93e-08
-9.23e-08
-9.0400015e-08
-8.7000004e-08
-8.5799996e-08
-8.66e-08
-8.51e-08
-8.2e-08
-8.13e-08
-8.280001e-08
-8.16e-08
-7.86e-08
-7.74e-08
-7.9e-08
-7.74e-08
-7.4000006e-08
-7.060001e-08
-6.8300004e-08
-6.52e-08
-6.37e-08
-6.41e-08
-6.6e-08
-6.56e-08
-6.56e-08
-6.37e-08
-6.26e-08
-6.1e-08
-6.1e-08
-6.1e-08
-5.6499996e-08
-5.15e-08
-5.15e-08
-5.2300003e-08
-5.1099995e-08
-4.54e-08
-3.8499998e-08
-3.59e-08
-3.78e-08
-3.8899998e-08
-4.0099998e-08
-4.0099998e-08
-3.8099998e-08
-3.74e-08
-3.8499998e-08
-3.8499998e-08
-3.8499998e-08
-3.8499998e-08
-4.12e-08
-4.5e-08
-4.23e-08
-3.2e-08
-1.91e-08
-8.8e-09
1.5e-09
1.22e-08
2.44e-08
3.13e-08
2.7799999e-08
1.26e-08
-1.11e-08
-3.2e-08
-4.16e-08
-4.3500002e-08
-4.12e-08
-4.12e-08
-4.27e-08
-4.2e-08
-3.8499998e-08
-3.59e-08
-3.13e-08
-2.5599999e-08
-2.71e-08
-4.08e-08
-3.17e-08
7.2899994e-08
2.8879998e-07
5.543e-07
8.4569996e-07
1.1471e-06
1.2970002e-06
1.0792e-06
5.394e-07
2.86e-08
-1.5639999e-07
-8.429999e-08
-1.87e-08
-7.02e-08
-1.3619999e-07
-1.495e-07
-1.45e-07
-1.4759999e-07
-1.4800001e-07
-1.453e-07
-1.419e-07
-1.343e-07
-1.255e-07
-1.171e-07
-1.11400006e-07
-1.0570001e-07
-9.77e-08
-8.2e-08
-6.48e-08
-4.9600004e-08
-4.23e-08
-3.59e-08
-2.44e-08
-7.6e-09
7.6e-09
2.17e-08
3.8099998e-08
6.1799994e-08
8.66e-08
1.099e-07
1.32e-07
1.579e-07
1.8809999e-07
2.151e-07
2.411e-07
2.712e-07
3.1090002e-07
3.5440002e-07
3.933e-07
4.2230002e-07
4.494e-07
4.692e-07
4.799e-07
4.7609996e-07
4.581e-07
4.1890002e-07
3.5820005e-07
2.792e-07
1.999e-07
1.255e-07
5.61e-08
-1.14e-08
-7.5900005e-08
-1.377e-07
-1.9040003e-07
-2.3039999e-07
-2.59e-07
-2.792e-07
-2.964e-07
-3.0750002e-07
-3.1240003e-07
-3.1009998e-07
-3.09e-07
-3.105e-07
-3.113e-07
-3.0520002e-07
-2.953e-07
-2.865e-07
-2.7960002e-07
-2.7309997e-07
-2.6320004e-07
-2.56e-07
-2.525e-07
-2.529e-07
-2.5440002e-07
-2.514e-07
-2.4339997e-07
-2.3540001e-07
-2.285e-07
-2.2239999e-07
-2.1899999e-07
-2.182e-07
-2.201e-07
-2.2239999e-07
-2.174e-07
-2.026e-07
-1.862e-07
-1.774e-07
-1.736e-07
-1.6859998e-07
-1.6290001e-07
-1.587e-07
-1.648e-07
-1.755e-07
-1.8880002e-07
-1.999e-07
-2.056e-07
-2.056e-07
-2.007e-07
-1.98e-07
-1.98e-07
-1.965e-07
-1.919e-07
-1.9069999e-07
-1.945e-07
-1.976e-07
-1.9069999e-07
-1.7970001e-07
-1.7400001e-07
-1.736e-07
-1.728e-07
-1.675e-07
-1.625e-07
-1.5490001e-07
-1.431e-07
-1.335e-07
-1.0829999e-07
-6.4999996e-09
2.2320002e-07
5.199e-07
8.106e-07
1.0864001e-06
1.2661001e-06
1.1471e-06
6.721e-07
1.0829999e-07
-1.8809999e-07
-1.568e-07
-5.04e-08
-6.56e-08
-1.4689999e-07
-1.8040001e-07
-1.8040001e-07
-1.823e-07
-1.816e-07
-1.7400001e-07
-1.6859998e-07
-1.637e-07
-1.5600001e-07
-1.4689999e-07
-1.404e-07
-1.347e-07
-1.259e-07
-1.129e-07
-9.77e-08
-8.32e-08
-7.13e-08
-5.6499996e-08
-4.08e-08
-2.2099998e-08
-3.9999998e-10
2.3299998e-08
4.6500002e-08
6.98e-08
9.42e-08
1.209e-07
1.5260001e-07
1.9e-07
2.3119999e-07
2.7579998e-07
3.181e-07
3.567e-07
3.8800002e-07
4.1429996e-07
4.3409997e-07
4.475e-07
4.475e-07
4.311e-07
3.937e-07
3.384e-07
2.686e-07
1.8809999e-07
1.0069999e-07
1.53e-08
-6.29e-08
-1.297e-07
-1.896e-07
-2.415e-07
-2.8110003e-07
-3.059e-07
-3.2309998e-07
-3.3759997e-07
-3.471e-07
-3.529e-07
-3.5359997e-07
-3.5359997e-07
-3.506e-07
-3.4290002e-07
-3.326e-07
-3.223e-07
-3.1390002e-07
-3.0520002e-07
-2.9600002e-07
-2.872e-07
-2.8110003e-07
-2.773e-07
-2.7389999e-07
-2.651e-07
-2.548e-07
-2.46e-07
-2.4339997e-07
-2.438e-07
-2.3959998e-07
-2.3000001e-07
-2.193e-07
-2.1480001e-07
-2.1360003e-07
-2.098e-07
-2.033e-07
-1.968e-07
-1.926e-07
-1.892e-07
-1.862e-07
-1.8499999e-07
-1.8420002e-07
-1.793e-07
-1.72e-07
-1.6560001e-07
-1.6329999e-07
-1.6519999e-07
-1.6560001e-07
-1.6290001e-07
-1.587e-07
-1.545e-07
-1.511e-07
-1.492e-07
-1.4380001e-07
-1.3889999e-07
-1.328e-07
-1.32e-07
-1.274e-07
-1.225e-07
-1.1979999e-07
-1.2049999e-07
-1.183e-07
-1.106e-07
-1.0409999e-07
-1.0340001e-07
-1.08e-07
-1.06e-07
-9.77e-08
-8.89e-08
-8.620001e-08
-9.12e-08
-9.7999994e-08
-9.96e-08
-9.350001e-08
-8.16e-08
-6.8300004e-08
-5.3400008e-08
-3.55e-08
-2.17e-08
-2.02e-08
-3.51e-08
-5.5700003e-08
-7.25e-08
-7.970001e-08
-8.16e-08
-8.13e-08
-7.93e-08
-7.6700005e-08
-7.3200006e-08
-7.060001e-08
-6.7500004e-08
-6.7900004e-08
-7.13e-08
-7.6700005e-08
-7.6300005e-08
-6.7100004e-08
-5.9500007e-08
-6.64e-08
-4.6900006e-08
7.55e-08
3.0750002e-07
5.7529996e-07
8.6330004e-07
1.1634999e-06
1.2955e-06
1.0441e-06
4.799e-07
-2.3299998e-08
-1.812e-07
-9.2700006e-08
-3.4699998e-08
-9.2700006e-08
-1.5639999e-07
-1.6560001e-07
-1.621e-07
-1.625e-07
-1.6170002e-07
-1.568e-07
-1.4650001e-07
-1.343e-07
-1.255e-07
-1.209e-07
-1.1369999e-07
-1.0030001e-07
-8.89e-08
-7.970001e-08
-7.060001e-08
-5.7999998e-08
-4.3500002e-08
-3.05e-08
-1.8300002e-08
3.9999998e-10
2.29e-08
4.54e-08
6.41e-08
8.01e-08
1.0069999e-07
1.2279999e-07
1.472e-07
1.755e-07
2.1480001e-07
2.636e-07
3.094e-07
3.5210002e-07
3.941e-07
4.3449998e-07
4.65e-07
4.826e-07
4.8789997e-07
4.784e-07
4.478e-07
3.9670002e-07
3.288e-07
2.5709997e-07
1.835e-07
1.08e-07
3.24e-08
-4.23e-08
-1.087e-07
-1.6560001e-07
-2.106e-07
-2.518e-07
-2.834e-07
-3.059e-07
-3.1969998e-07
-3.2620002e-07
-3.284e-07
-3.296e-07
-3.284e-07
-3.2580002e-07
-3.1969998e-07
-3.09e-07
-2.995e-07
-2.899e-07
-2.853e-07
-2.819e-07
-2.7770002e-07
-2.7309997e-07
-2.701e-07
-2.6470002e-07
-2.579e-07
-2.491e-07
-2.422e-07
-2.3800003e-07
-2.369e-07
-2.3800003e-07
-2.399e-07
-2.3270003e-07
-2.151e-07
-1.953e-07
-1.816e-07
-1.732e-07
-1.6670002e-07
-1.6140001e-07
-1.572e-07
-1.5639999e-07
-1.61e-07
-1.72e-07
-1.896e-07
-2.029e-07
-2.0520001e-07
-2.0139998e-07
-1.999e-07
-2.0179999e-07
-2.029e-07
-2.0139998e-07
-1.9840002e-07
-1.945e-07
-1.9149999e-07
-1.8809999e-07
-1.858e-07
-1.846e-07
-1.8080003e-07
-1.755e-07
-1.728e-07
-1.717e-07
-1.6940001e-07
-1.6329999e-07
-1.5639999e-07
-1.5340001e-07
-1.5219999e-07
-1.4800001e-07
-1.4380001e-07
-1.392e-07
-1.3660001e-07
-1.324e-07
-1.274e-07
-1.194e-07
-1.0949999e-07
-1.0340001e-07
-1.0109999e-07
-1.0030001e-07
-1.0030001e-07
-9.7299996e-08
-9.380001e-08
-9.12e-08
-9e-08
-8.7000004e-08
-8.13e-08
-7.5900005e-08
-7.36e-08
-7.48e-08
-7.8199996e-08
-7.55e-08
-6.7500004e-08
-5.84e-08
-5.2300003e-08
-5.3e-08
-5.5700003e-08
-5.61e-08
-5.61e-08
-5.53e-08
-5.2300003e-08
-4.81e-08
-4.6500002e-08
-4.84e-08
-4.9600004e-08
-4.92e-08
-4.6200004e-08
-4.5e-08
-4.23e-08
-4.16e-08
-4.27e-08
-4.6900006e-08
-5.000001e-08
-5.1099995e-08
-5.04e-08
-4.92e-08
-4.6500002e-08
-4.23e-08
-3.9700005e-08
-4.12e-08
-4.23e-08
-4.3500002e-08
-4.4300002e-08
-4.4300002e-08
-4.08e-08
-3.51e-08
-3.13e-08
-3.24e-08
-3.6200003e-08
-4.08e-08
-4.23e-08
-4.0099998e-08
-3.4299998e-08
-3.05e-08
-3.4699998e-08
-4.5e-08
-5.0700002e-08
-4.4300002e-08
-3.4e-08
-2.8999999e-08
-3.01e-08
-2.94e-08
-3.05e-08
-3.6600003e-08
-4.08e-08
-3.59e-08
-2.82e-08
-2.98e-08
-3.9700005e-08
-4.81e-08
-5.1099995e-08
-5.1099995e-08
-4.9600004e-08
-4.84e-08
-4.6500002e-08
-4.2e-08
-3.93e-08
-4.08e-08
-4.3500002e-08
-4.3900002e-08
-4.58e-08
-5.4900003e-08
-6.41e-08
-6.37e-08
-5.91e-08
-5.4900003e-08
-5.72e-08
-5.84e-08
-5.42e-08
-5.2300003e-08
-5.6499996e-08
-5.7999998e-08
-5.19e-08
-4.77e-08
-5.04e-08
-5.6800005e-08
-5.84e-08
-5.46e-08
-5.2300003e-08
-5.000001e-08
-4.77e-08
-4.73e-08
-5.3800004e-08
-5.61e-08
-5.3e-08
-4.6900006e-08
-4.54e-08
-4.73e-08
-4.3100005e-08
-3.55e-08
-3.17e-08
-3.74e-08
-4.4599997e-08
-4.4599997e-08
-3.59e-08
-2.98e-08
-2.94e-08
-3.0899997e-08
-2.44e-08
-1.26e-08
-4.2e-09
1.5e-09
1.49e-08
3.4e-08
4.6900006e-08
3.93e-08
1.4499999e-08
-1.0700002e-08
-2.3299998e-08
-2.37e-08
-2.1e-08
-1.91e-08
-1.6e-08
-1.2999999e-08
-8.4e-09
-3.8e-09
-7.9999996e-10
-1.1e-09
3.3999998e-09
1.11e-08
1.98e-08
7.55e-08
2.4029998e-07
4.768e-07
7.0920004e-07
9.346e-07
1.1131001e-06
1.0818e-06
7.412e-07
2.5709997e-07
-5.91e-08
-8.16e-08
1.37e-08
2.29e-08
-3.8499998e-08
-7.209999e-08
-7.51e-08
-7.93e-08
-8.05e-08
-7.9e-08
-7.7799996e-08
-7.51e-08
-6.9399995e-08
-6.1399994e-08
-5.19e-08
-4.3500002e-08
-3.6600003e-08
-2.7500002e-08
-1.75e-08
-8e-09
2.7e-09
1.4499999e-08
2.82e-08
4.16e-08
5.53e-08
6.9e-08
8.32e-08
1.0219999e-07
1.1979999e-07
1.3500001e-07
1.541e-07
1.8040001e-07
2.125e-07
2.4300002e-07
2.678e-07
2.9260002e-07
3.1890002e-07
3.498e-07
3.8029998e-07
4.066e-07
4.2720006e-07
4.4060002e-07
4.498e-07
4.49e-07
4.333e-07
4.0509997e-07
3.6999998e-07
3.296e-07
2.792e-07
2.1589999e-07
1.453e-07
7.48e-08
6.1e-09
-6.1e-08
-1.2049999e-07
-1.644e-07
-1.896e-07
-2.1099999e-07
-2.3119999e-07
-2.422e-07
-2.4189998e-07
-2.384e-07
-2.426e-07
-2.51e-07
-2.5830002e-07
-2.6470002e-07
-2.7579998e-07
-2.838e-07
-2.823e-07
-2.754e-07
-2.686e-07
-2.6320004e-07
-2.5709997e-07
-2.48e-07
-2.407e-07
-2.377e-07
-2.3730001e-07
-2.361e-07
-2.3270003e-07
-2.296e-07
-2.285e-07
-2.277e-07
-2.2540002e-07
-2.2280001e-07
-2.2159999e-07
-2.209e-07
-2.1899999e-07
-2.167e-07
-2.1399998e-07
-2.1360003e-07
-2.1099999e-07
-2.0680002e-07
-2.026e-07
-2.037e-07
-2.045e-07
-1.991e-07
-1.896e-07
-1.8310001e-07
-1.823e-07
-1.816e-07
-1.766e-07
-1.7090001e-07
-1.671e-07
-1.6329999e-07
-1.579e-07
-1.514e-07
-1.4689999e-07
-1.4689999e-07
-1.4689999e-07
-1.45e-07
-1.4269999e-07
-1.45e-07
-1.53e-07
-1.6140001e-07
-1.663e-07
-1.64e-07
-1.61e-07
-1.5600001e-07
-1.5340001e-07
-1.514e-07
-1.507e-07
-1.499e-07
-1.472e-07
-1.431e-07
-1.404e-07
-1.3660001e-07
-1.335e-07
-1.2890001e-07
-1.2779999e-07
-1.259e-07
-1.244e-07
-1.213e-07
-1.1630001e-07
-1.122e-07
-1.0760001e-07
-1.0570001e-07
-1.038e-07
-9.96e-08
-9.380001e-08
-8.8499995e-08
-8.54e-08
-8.4700005e-08
-8.2e-08
-7.86e-08
-7.44e-08
-7.02e-08
-6.7500004e-08
-6.41e-08
-6.29e-08
-6.52e-08
-6.48e-08
-6.29e-08
-5.9899996e-08
-5.8699996e-08
-5.72e-08
-5.5700003e-08
-5.4900003e-08
-5.72e-08
-5.6800005e-08
-5.2300003e-08
-4.92e-08
-4.77e-08
-4.6200004e-08
-4.3900002e-08
-4.12e-08
-4.0099998e-08
-4.0099998e-08
-3.93e-08
-3.8099998e-08
-3.8499998e-08
-4.04e-08
-4.3100005e-08
-4.3100005e-08
-4.3500002e-08
-4.3500002e-08
-4.58e-08
-4.5e-08
-4.04e-08
-3.4299998e-08
-3.4e-08
-3.74e-08
-4.04e-08
-3.6600003e-08
-3.24e-08
-3.2e-08
-3.59e-08
-3.51e-08
-2.71e-08
-1.9500002e-08
-1.68e-08
-1.64e-08
-1.53e-08
-1.53e-08
-1.2999999e-08
-8.4e-09
-1.9e-09
1.9e-09
-1.5e-09
-3.3999998e-09
-3.1000003e-09
-3.8e-09
-1.11e-08
-1.49e-08
-9.5e-09
-7.9999996e-10
1.1e-09
-3.9999998e-10
0.0
2.3e-09
-1.5e-09
-1.03e-08
-1.4499999e-08
-8.8e-09
-2.3e-09
3.1000003e-09
4.6e-09
6.4999996e-09
6.4999996e-09
6.4999996e-09
6.1e-09
5.7e-09
3.3999998e-09
2.3e-09
2.3e-09
4.6e-09
6.8999997e-09
6.8999997e-09
5.3000004e-09
5.0000004e-09
6.4999996e-09
8.4e-09
6.1e-09
2.3e-09
-3.8e-09
-5.3000004e-09
-1.9e-09
3.1000003e-09
4.6e-09
5.0000004e-09
5.7e-09
5.3000004e-09
3.3999998e-09
3.9999998e-10
1.5e-09
7.6e-09
1.03e-08
8e-09
1.9e-09
1.9e-09
6.4999996e-09
1.33999984e-08
1.87e-08
2.37e-08
3.13e-08
4.3500002e-08
5.61e-08
5.5700003e-08
3.8499998e-08
1.33999984e-08
-4.2e-09
-6.4999996e-09
-2.7e-09
-1.5e-09
1.1e-09
1.2999999e-08
2.82e-08
4.5e-08
1.0570001e-07
2.651e-07
4.94e-07
7.2560005e-07
9.544e-07
1.1337e-06
1.0901999e-06
7.2939997e-07
2.3119999e-07
-8.24e-08
-9.96e-08
-6.1e-09
-3.1000003e-09
-7.209999e-08
-1.099e-07
-1.0949999e-07
-1.11800006e-07
-1.129e-07
-1.11e-07
-1.0719999e-07
-1.02600005e-07
-9.65e-08
-8.81e-08
-8.05e-08
-7.51e-08
-7.02e-08
-6.52e-08
-5.4900003e-08
-4.2e-08
-2.98e-08
-2.25e-08
-1.37e-08
0.0
1.4499999e-08
2.4800002e-08
3.4299998e-08
4.77e-08
6.68e-08
8.5799996e-08
1.03e-07
1.2279999e-07
1.488e-07
1.8009999e-07
2.1399998e-07
2.4339997e-07
2.686e-07
2.937e-07
3.1969998e-07
3.4480004e-07
3.6960003e-07
3.9140002e-07
4.108e-07
4.2150003e-07
4.211e-07
4.124e-07
3.952e-07
3.6280002e-07
3.0750002e-07
2.361e-07
1.5750001e-07
7.55e-08
-9.2e-09
-8.5799996e-08
-1.4800001e-07
-1.9490001e-07
-2.3379998e-07
-2.663e-07
-2.922e-07
-3.094e-07
-3.216e-07
-3.307e-07
-3.361e-07
-3.3950002e-07
-3.4030003e-07
-3.391e-07
-3.3570004e-07
-3.307e-07
-3.242e-07
-3.204e-07
-3.174e-07
-3.1430002e-07
-3.09e-07
-3.017e-07
-2.911e-07
-2.838e-07
-2.7960002e-07
-2.7770002e-07
-2.7349998e-07
-2.6470002e-07
-2.548e-07
-2.48e-07
-2.4339997e-07
-2.377e-07
-2.3119999e-07
-2.2619999e-07
-2.22e-07
-2.1360003e-07
-1.9950001e-07
-1.8690001e-07
-1.7890001e-07
-1.766e-07
-1.743e-07
-1.7049999e-07
-1.675e-07
-1.6560001e-07
-1.6900002e-07
-1.7810001e-07
-1.884e-07
-1.965e-07
-2.007e-07
-2.0029998e-07
-1.987e-07
-1.926e-07
-1.8540001e-07
-1.816e-07
-1.812e-07
-1.7970001e-07
-1.7810001e-07
-1.755e-07
-1.7240002e-07
-1.698e-07
-1.6519999e-07
-1.598e-07
-1.545e-07
-1.5340001e-07
-1.5219999e-07
-1.492e-07
-1.4460001e-07
-1.4269999e-07
-1.396e-07
-1.3310002e-07
-1.286e-07
-1.244e-07
-1.15199995e-07
-9.96e-08
-8.51e-08
-4.92e-08
8.16e-08
3.353e-07
6.2830003e-07
8.7319995e-07
1.0448e-06
1.0662e-06
8.2089997e-07
3.5210002e-07
-6.9e-08
-2.0939999e-07
-1.2049999e-07
-4.16e-08
-8.05e-08
-1.45e-07
-1.579e-07
-1.5260001e-07
-1.5369999e-07
-1.5369999e-07
-1.4759999e-07
-1.423e-07
-1.404e-07
-1.3729999e-07
-1.2890001e-07
-1.14100004e-07
-9.920001e-08
-8.8499995e-08
-8.32e-08
-7.71e-08
-6.87e-08
-5.9899996e-08
-5.2599997e-08
-3.8499998e-08
-1.68e-08
6.1e-09
2.59e-08
5.000001e-08
8.2e-08
1.1750001e-07
1.4650001e-07
1.751e-07
2.0749998e-07
2.3959998e-07
2.651e-07
2.907e-07
3.2350002e-07
3.624e-07
3.979e-07
4.2420004e-07
4.4060002e-07
4.475e-07
4.4060002e-07
4.185e-07
3.7610002e-07
3.1320002e-07
2.3500002e-07
1.488e-07
6.03e-08
-2.29e-08
-9.88e-08
-1.637e-07
-2.178e-07
-2.6320004e-07
-2.972e-07
-3.204e-07
-3.3680004e-07
-3.494e-07
-3.555e-07
-3.559e-07
-3.51e-07
-3.441e-07
-3.3950002e-07
-3.3340004e-07
-3.254e-07
-3.185e-07
-3.113e-07
-3.0479998e-07
-3.0019999e-07
-2.934e-07
-2.865e-07
-2.7579998e-07
-2.655e-07
-2.5859998e-07
-2.495e-07
-2.361e-07
-2.22e-07
-2.102e-07
-2.0139998e-07
-1.9380002e-07
-1.858e-07
-1.774e-07
-1.7010001e-07
-1.64e-07
-1.579e-07
-1.545e-07
-1.5219999e-07
-1.5219999e-07
-1.499e-07
-1.461e-07
-1.408e-07
-1.354e-07
-1.3160002e-07
-1.2929999e-07
-1.2929999e-07
-1.301e-07
-1.2890001e-07
-1.274e-07
-1.259e-07
-1.2279999e-07
-1.2279999e-07
-1.2279999e-07
-1.213e-07
-1.1750001e-07
-1.1369999e-07
-1.122e-07
-1.11800006e-07
-1.087e-07
-1.0409999e-07
-9.99e-08
-9.57e-08
-9.08e-08
-8.66e-08
-8.4700005e-08
-8.4700005e-08
-8.32e-08
-8.05e-08
-7.74e-08
-7.48e-08
-7.36e-08
-7.2899994e-08
-7.17e-08
-6.87e-08
-6.64e-08
-6.41e-08
-6.29e-08
-6.22e-08
-6.33e-08
-6.33e-08
-6.29e-08
-5.9899996e-08
-5.8699996e-08
-5.84e-08
-5.53e-08
-5.1099995e-08
-4.77e-08
-4.77e-08
-5.000001e-08
-4.81e-08
-4.54e-08
-4.27e-08
-4.5e-08
-4.6900006e-08
-4.6200004e-08
-4.3100005e-08
-4.16e-08
-4.08e-08
-4.08e-08
-4.0099998e-08
-4.04e-08
-3.8499998e-08
-3.74e-08
-3.74e-08
-3.8499998e-08
-4.0099998e-08
-3.8899998e-08
-3.8099998e-08
-3.8499998e-08
-4.0099998e-08
-3.9700005e-08
-3.6600003e-08
-3.2e-08
-2.8999999e-08
-2.94e-08
-3.24e-08
-3.36e-08
-3.32e-08
-3.4e-08
-3.4299998e-08
-3.4699998e-08
-3.32e-08
-3.28e-08
-3.36e-08
-3.59e-08
-3.59e-08
-3.4299998e-08
-3.32e-08
-3.4299998e-08
-3.59e-08
-3.59e-08
-3.4299998e-08
-3.32e-08
-3.24e-08
-2.98e-08
-2.6700004e-08
-2.5599999e-08
-2.7799999e-08
-3.17e-08
-3.32e-08
-2.98e-08
-2.5599999e-08
-2.37e-08
-2.6299999e-08
-2.71e-08
-2.6299999e-08
-2.3299998e-08
-2.4800002e-08
-2.71e-08
-2.8999999e-08
-2.86e-08
-3.01e-08
-3.36e-08
-3.32e-08
-3.01e-08
-2.6299999e-08
-2.6299999e-08
-2.86e-08
-3.01e-08
-2.8999999e-08
-2.71e-08
-2.4800002e-08
-2.25e-08
-2.29e-08
-2.37e-08
-2.52e-08
-2.37e-08
-2.3299998e-08
-2.1e-08
-1.75e-08
-1.1800001e-08
-4.6e-09
-1.1e-09
-4.6e-09
-6.8999997e-09
-6.8999997e-09
-5.0000004e-09
0.0
7.6e-09
1.53e-08
2.44e-08
3.4699998e-08
3.6600003e-08
2.29e-08
-4.6e-09
-2.98e-08
-4.23e-08
-4.04e-08
-3.6200003e-08
-3.6600003e-08
-3.8499998e-08
-4.04e-08
-4.3100005e-08
-4.3500002e-08
-4.3900002e-08
-4.08e-08
-3.6600003e-08
-3.93e-08
-5.61e-08
-4.3900002e-08
7.060001e-08
2.945e-07
5.505e-07
8.3199996e-07
1.16e-06
1.3721e-06
1.1997e-06
6.424e-07
7.02e-08
-1.648e-07
-1.0340001e-07
-2.7799999e-08
-7.7799996e-08
-1.511e-07
-1.6859998e-07
-1.6519999e-07
-1.663e-07
-1.6329999e-07
-1.572e-07
-1.53e-07
-1.499e-07
-1.4650001e-07
-1.396e-07
-1.263e-07
-1.099e-07
-9.54e-08
-8.54e-08
-7.8199996e-08
-7.1e-08
-6.29e-08
-5.2300003e-08
-3.55e-08
-1.26e-08
1.2999999e-08
3.74e-08
5.6499996e-08
7.1e-08
8.89e-08
1.106e-07
1.312e-07
1.4759999e-07
1.6170002e-07
1.778e-07
2.0139998e-07
2.3080001e-07
2.6320004e-07
2.9679998e-07
3.3000003e-07
3.5780002e-07
3.822e-07
4.025e-07
4.166e-07
4.2270003e-07
4.185e-07
4.013e-07
3.677e-07
3.2079998e-07
2.64e-07
1.9840002e-07
1.27e-07
5.15e-08
-1.98e-08
-8.5799996e-08
-1.472e-07
-1.991e-07
-2.407e-07
-2.7160002e-07
-2.964e-07
-3.181e-07
-3.33e-07
-3.399e-07
-3.399e-07
-3.391e-07
-3.3680004e-07
-3.3570004e-07
-3.349e-07
-3.349e-07
-3.353e-07
-3.2650001e-07
-3.0750002e-07
-2.869e-07
-2.7160002e-07
-2.5859998e-07
-2.4300002e-07
-2.277e-07
-2.178e-07
-2.1589999e-07
-2.193e-07
-2.3039999e-07
-2.4410002e-07
-2.529e-07
-2.506e-07
-2.411e-07
-2.3379998e-07
-2.3039999e-07
-2.285e-07
-2.258e-07
-2.235e-07
-2.2280001e-07
-2.2280001e-07
-2.22e-07
-2.201e-07
-2.1969998e-07
-2.201e-07
-2.1969998e-07
-2.182e-07
-2.1399998e-07
-2.1170001e-07
-2.0939999e-07
-2.0680002e-07
-2.045e-07
-2.0139998e-07
-1.9380002e-07
-1.846e-07
-1.7810001e-07
-1.755e-07
-1.7400001e-07
-1.6859998e-07
-1.6170002e-07
-1.568e-07
-1.5490001e-07
-1.507e-07
-1.461e-07
-1.423e-07
-1.408e-07
-1.404e-07
-1.3729999e-07
-1.324e-07
-1.274e-07
-1.244e-07
-1.244e-07
-1.2359999e-07
-1.2049999e-07
-1.15199995e-07
-1.106e-07
-1.06800016e-07
-1.0409999e-07
-1.02600005e-07
-9.88e-08
-9.61e-08
-9.19e-08
-8.8499995e-08
-8.51e-08
-8.280001e-08
-8.24e-08
-8.13e-08
-7.970001e-08
-7.55e-08
-7.25e-08
-7.1e-08
-6.9399995e-08
-6.7100004e-08
-6.7100004e-08
-6.68e-08
-6.52e-08
-6.26e-08
-6.03e-08
-5.8699996e-08
-5.6499996e-08
-5.42e-08
-5.3e-08
-5.19e-08
-5.000001e-08
-4.73e-08
-4.6200004e-08
-4.3900002e-08
-4.2e-08
-3.9700005e-08
-3.9700005e-08
-4.0099998e-08
-3.93e-08
-3.74e-08
-3.4e-08
-3.0899997e-08
-2.7799999e-08
-2.7799999e-08
-2.7500002e-08
-2.59e-08
-2.59e-08
-2.5599999e-08
-2.52e-08
-2.37e-08
-2.1400004e-08
-2.1e-08
-2.1400004e-08
-1.75e-08
-1.26e-08
-8e-09
-7.1999997e-09
-9.2e-09
-8.8e-09
-6.8999997e-09
-8e-09
-1.0700002e-08
-1.33999984e-08
-1.41e-08
-1.33999984e-08
-1.33999984e-08
-1.4499999e-08
-1.6e-08
-1.56e-08
-1.14e-08
-9.5e-09
-1.03e-08
-1.11e-08
-8.8e-09
-3.1000003e-09
-7.9999996e-10
-1.9e-09
-4.6e-09
-6.1e-09
-7.1999997e-09
-6.4999996e-09
-9.5e-09
-1.2999999e-08
-1.53e-08
-1.37e-08
-1.03e-08
-6.4999996e-09
-3.1000003e-09
1.5e-09
2.3e-09
3.8e-09
9.2e-09
1.75e-08
1.9500002e-08
1.1800001e-08
3.1000003e-09
3.3999998e-09
1.22e-08
2.06e-08
2.06e-08
1.6e-08
1.33999984e-08
1.4499999e-08
1.75e-08
1.68e-08
1.4499999e-08
1.4499999e-08
1.68e-08
1.75e-08
1.8300002e-08
2.1400004e-08
2.4e-08
2.59e-08
2.52e-08
2.37e-08
2.29e-08
2.44e-08
2.5599999e-08
2.2099998e-08
1.64e-08
9.9e-09
8e-09
1.03e-08
1.33999984e-08
1.26e-08
8.8e-09
3.8e-09
-7.9999996e-10
0.0
6.4999996e-09
1.68e-08
2.25e-08
2.37e-08
2.7500002e-08
3.8499998e-08
5.46e-08
5.84e-08
4.23e-08
1.41e-08
-1.22e-08
-2.86e-08
-3.13e-08
-2.98e-08
-2.86e-08
-3.05e-08
-3.59e-08
-4.16e-08
-4.4300002e-08
-4.16e-08
-3.8099998e-08
-3.7000003e-08
-4.27e-08
-5.5700003e-08
-3.78e-08
7.51e-08
2.8839997e-07
5.077e-07
7.023e-07
9.483e-07
1.2005e-06
1.2085e-06
8.1829995e-07
2.51e-07
-1.0760001e-07
-1.3850001e-07
-6.26e-08
-7.5900005e-08
-1.499e-07
-1.862e-07
-1.884e-07
-1.892e-07
-1.9339998e-07
-1.9570001e-07
-1.942e-07
-1.839e-07
-1.717e-07
-1.602e-07
-1.5260001e-07
-1.423e-07
-1.2890001e-07
-1.1369999e-07
-1.038e-07
-9.5e-08
-8.620001e-08
-7.17e-08
-5.5700003e-08
-3.55e-08
-1.64e-08
6.1e-09
2.7799999e-08
4.6500002e-08
6.1799994e-08
7.55e-08
8.81e-08
1.06e-07
1.312e-07
1.6560001e-07
2.056e-07
2.4570002e-07
2.838e-07
3.246e-07
3.681e-07
4.055e-07
4.3140003e-07
4.4479998e-07
4.4520002e-07
4.3260002e-07
4.1159996e-07
3.9100004e-07
3.712e-07
3.4099997e-07
2.934e-07
2.3039999e-07
1.572e-07
7.8199996e-08
1.5e-09
-7.1e-08
-1.347e-07
-1.8770001e-07
-2.3309998e-07
-2.682e-07
-2.972e-07
-3.2269998e-07
-3.441e-07
-3.5509998e-07
-3.5820005e-07
-3.6129998e-07
-3.6510002e-07
-3.681e-07
-3.6129998e-07
-3.475e-07
-3.33e-07
-3.2650001e-07
-3.216e-07
-3.1660002e-07
-3.0669997e-07
-3.014e-07
-2.9560002e-07
-2.819e-07
-2.594e-07
-2.377e-07
-2.239e-07
-2.1860002e-07
-2.1439998e-07
-2.0900002e-07
-2.0749998e-07
-2.083e-07
-2.083e-07
-2.029e-07
-1.991e-07
-2.0409999e-07
-2.1439998e-07
-2.2049998e-07
-2.193e-07
-2.1480001e-07
-2.1320001e-07
-2.1630001e-07
-2.178e-07
-2.155e-07
-2.102e-07
-2.045e-07
-2.0179999e-07
-2.0520001e-07
-2.0790003e-07
-2.056e-07
-1.9570001e-07
-1.8499999e-07
-1.774e-07
-1.759e-07
-1.728e-07
-1.659e-07
-1.5559999e-07
-1.4650001e-07
-1.423e-07
-1.4419999e-07
-1.453e-07
-1.419e-07
-1.339e-07
-1.27e-07
-1.221e-07
-1.1750001e-07
-1.0949999e-07
-1.0409999e-07
-1.0149999e-07
-1.0069999e-07
-9.99e-08
-9.7299996e-08
-9.380001e-08
-9e-08
-8.620001e-08
-7.970001e-08
-7.44e-08
-7.17e-08
-7.36e-08
-8.01e-08
-8.89e-08
-9.46e-08
-8.93e-08
-7.55e-08
-6.64e-08
-6.449999e-08
-6.1399994e-08
-4.9600004e-08
-3.7000003e-08
-3.24e-08
-3.8499998e-08
-4.92e-08
-6.07e-08
-7.209999e-08
-7.86e-08
-7.5900005e-08
-6.7500004e-08
-5.8699996e-08
-5.42e-08
-5.0700002e-08
-5.0700002e-08
-5.3e-08
-5.53e-08
-5.4900003e-08
-5.2300003e-08
-4.88e-08
-4.58e-08
-4.08e-08
-2.7799999e-08
-7.1999997e-09
5.000001e-08
2.1480001e-07
4.852e-07
7.5e-07
9.335e-07
1.0322999e-06
9.913999e-07
7.2560005e-07
2.995e-07
-5.0700002e-08
-1.431e-07
-4.88e-08
1.33999984e-08
-2.52e-08
-7.51e-08
-8.620001e-08
-8.51e-08
-8.54e-08
-8.54e-08
-8.5799996e-08
-8.39e-08
-7.71e-08
-6.9e-08
-6.41e-08
-6.1399994e-08
-5.7599998e-08
-5.04e-08
-4.12e-08
-3.17e-08
-2.06e-08
-1.03e-08
1.1e-09
1.33999984e-08
2.7799999e-08
4.27e-08
5.6800005e-08
7.5900005e-08
9.690001e-08
1.213e-07
1.4689999e-07
1.72e-07
1.987e-07
2.3000001e-07
2.6589998e-07
3.059e-07
3.4290002e-07
3.75e-07
4.0700004e-07
4.375e-07
4.6390002e-07
4.848e-07
4.9289997e-07
4.894e-07
4.707e-07
4.3529997e-07
3.841e-07
3.162e-07
2.4029998e-07
1.595e-07
7.6300005e-08
-1.5e-09
-7.4000006e-08
-1.3729999e-07
-1.926e-07
-2.3500002e-07
-2.682e-07
-2.934e-07
-3.1390002e-07
-3.2620002e-07
-3.315e-07
-3.33e-07
-3.338e-07
-3.33e-07
-3.292e-07
-3.2350002e-07
-3.212e-07
-3.1969998e-07
-3.1550002e-07
-3.082e-07
-3.01e-07
-2.9300003e-07
-2.861e-07
-2.7810003e-07
-2.712e-07
-2.651e-07
-2.598e-07
-2.5409997e-07
-2.495e-07
-2.438e-07
-2.346e-07
-2.2809999e-07
-2.235e-07
-2.209e-07
-2.174e-07
-2.1210002e-07
-2.0749998e-07
-2.0479999e-07
-2.033e-07
-2.007e-07
-1.968e-07
-1.9490001e-07
-1.945e-07
-1.9339998e-07
-1.919e-07
-1.9e-07
-1.892e-07
-1.884e-07
-1.873e-07
-1.839e-07
-1.8080003e-07
-1.774e-07
-1.7400001e-07
-1.72e-07
-1.6940001e-07
-1.682e-07
-1.671e-07
-1.6519999e-07
-1.6329999e-07
-1.6140001e-07
-1.572e-07
-1.511e-07
-1.461e-07
-1.4269999e-07
-1.419e-07
-1.404e-07
-1.392e-07
-1.354e-07
-1.324e-07
-1.305e-07
-1.2929999e-07
-1.282e-07
-1.263e-07
-1.2359999e-07
-1.209e-07
-1.1750001e-07
-1.15199995e-07
-1.14100004e-07
-1.144e-07
-1.148e-07
-1.14100004e-07
-1.11800006e-07
-1.087e-07
-1.0570001e-07
-1.0409999e-07
-1.0409999e-07
-1.03e-07
-9.920001e-08
-9.46e-08
-9.0400015e-08
-9e-08
-8.93e-08
-8.429999e-08
-7.55e-08
-6.9e-08
-6.98e-08
-7.48e-08
-7.17e-08
-6.03e-08
-4.6500002e-08
-3.4699998e-08
-2.59e-08
-1.98e-08
-1.75e-08
-1.53e-08
-1.79e-08
-3.24e-08
-5.61e-08
-7.86e-08
-8.620001e-08
-8.0899994e-08
-7.25e-08
-7.060001e-08
-7.209999e-08
-7.4000006e-08
-7.4000006e-08
-7.13e-08
-6.9399995e-08
-6.7500004e-08
-6.52e-08
-6.03e-08
-5.9899996e-08
-5.9899996e-08
-2.3e-09
1.728e-07
4.238e-07
6.859e-07
9.785e-07
1.2561999e-06
1.2863e-06
9.037e-07
3.025e-07
-1.1369999e-07
-1.648e-07
-5.6800005e-08
-4.0099998e-08
-1.1630001e-07
-1.598e-07
-1.61e-07
-1.602e-07
-1.606e-07
-1.553e-07
-1.495e-07
-1.453e-07
-1.434e-07
-1.369e-07
-1.2779999e-07
-1.148e-07
-1.0409999e-07
-9.46e-08
-8.51e-08
-7.2899994e-08
-5.8699996e-08
-4.4300002e-08
-3.28e-08
-2.1e-08
-7.6e-09
1.0700002e-08
3.2e-08
5.2599997e-08
7.060001e-08
8.66e-08
1.0570001e-07
1.251e-07
1.499e-07
1.862e-07
2.3160003e-07
2.7430002e-07
3.1320002e-07
3.559e-07
4.032e-07
4.4560002e-07
4.726e-07
4.89e-07
4.94e-07
4.8600003e-07
4.5889996e-07
4.1890002e-07
3.7310002e-07
3.17e-07
2.495e-07
1.7090001e-07
9.16e-08
1.26e-08
-6.07e-08
-1.266e-07
-1.812e-07
-2.247e-07
-2.594e-07
-2.872e-07
-3.0860002e-07
-3.204e-07
-3.2730003e-07
-3.2650001e-07
-3.2580002e-07
-3.254e-07
-3.212e-07
-3.1430002e-07
-3.082e-07
-3.0360002e-07
-3.0360002e-07
-2.9750004e-07
-2.8949998e-07
-2.819e-07
-2.773e-07
-2.6930002e-07
-2.6280003e-07
-2.5859998e-07
-2.5749998e-07
-2.506e-07
-2.384e-07
-2.235e-07
-2.113e-07
-2.0219998e-07
-1.945e-07
-1.8770001e-07
-1.846e-07
-1.8040001e-07
-1.743e-07
-1.736e-07
-1.823e-07
-1.942e-07
-1.999e-07
-1.9840002e-07
-1.961e-07
-1.942e-07
-1.926e-07
-1.9e-07
-1.8880002e-07
-1.8880002e-07
-1.896e-07
-1.9149999e-07
-1.926e-07
-1.9040003e-07
-1.8540001e-07
-1.8009999e-07
-1.759e-07
-1.717e-07
-1.682e-07
-1.6519999e-07
-1.61e-07
-1.5559999e-07
-1.507e-07
-1.4380001e-07
-1.3580001e-07
-1.274e-07
-1.209e-07
-1.1630001e-07
-1.144e-07
-1.10200006e-07
-1.019e-07
-8.81e-08
-7.6300005e-08
-2.7799999e-08
1.369e-07
4.303e-07
7.408e-07
9.991e-07
1.2053999e-06
1.2592e-06
9.975e-07
4.6230002e-07
-2.8999999e-08
-1.976e-07
-1.06e-07
-2.71e-08
-7.13e-08
-1.3660001e-07
-1.4650001e-07
-1.423e-07
-1.461e-07
-1.511e-07
-1.5369999e-07
-1.5750001e-07
-1.568e-07
-1.4839999e-07
-1.328e-07
-1.183e-07
-1.06e-07
-9.31e-08
-7.44e-08
-5.42e-08
-4.04e-08
-3.32e-08
-2.7799999e-08
-2.4800002e-08
-2.25e-08
-1.72e-08
-3.3999998e-09
2.1400004e-08
4.6900006e-08
7.36e-08
9.920001e-08
1.266e-07
1.5750001e-07
1.953e-07
2.369e-07
2.7810003e-07
3.159e-07
3.51e-07
3.811e-07
4.086e-07
4.2879995e-07
4.3599997e-07
4.2720006e-07
4.025e-07
3.6199998e-07
3.0360002e-07
2.3080001e-07
1.488e-07
6.37e-08
-1.72e-08
-9e-08
-1.5490001e-07
-2.113e-07
-2.579e-07
-2.934e-07
-3.181e-07
-3.353e-07
-3.4520002e-07
-3.494e-07
-3.5249997e-07
-3.5440002e-07
-3.5399998e-07
-3.4869998e-07
-3.407e-07
-3.342e-07
-3.315e-07
-3.288e-07
-3.2350002e-07
-3.1430002e-07
-3.0669997e-07
-3.01e-07
-2.9679998e-07
-2.9139997e-07
-2.861e-07
-2.7849998e-07
-2.7239997e-07
-2.6589998e-07
-2.602e-07
-2.5409997e-07
-2.483e-07
-2.426e-07
-2.3800003e-07
-2.346e-07
-2.3309998e-07
-2.296e-07
-2.251e-07
-2.174e-07
-2.0939999e-07
-2.0219998e-07
-1.987e-07
-1.965e-07
-1.953e-07
-1.93e-07
-1.9069999e-07
-1.9e-07
-1.9e-07
-1.892e-07
-1.8499999e-07
-1.7849999e-07
-1.762e-07
-1.774e-07
-1.774e-07
-1.7400001e-07
-1.6859998e-07
-1.644e-07
-1.6290001e-07
-1.6140001e-07
-1.5559999e-07
-1.472e-07
-1.415e-07
-1.4380001e-07
-1.488e-07
-1.514e-07
-1.4759999e-07
-1.419e-07
-1.3729999e-07
-1.3160002e-07
-1.263e-07
-1.183e-07
-1.106e-07
-1.06e-07
-1.03e-07
-1.02600005e-07
-1.0069999e-07
-9.7299996e-08
-9.42e-08
-9.08e-08
-8.960001e-08
-8.66e-08
-8.32e-08
-8.01e-08
-7.7799996e-08
-7.51e-08
-7.2899994e-08
-6.87e-08
-6.52e-08
-6.52e-08
-6.64e-08
-6.68e-08
-6.1399994e-08
-5.6499996e-08
-5.3e-08
-5.2599997e-08
-5.3e-08
-5.15e-08
-4.92e-08
-4.58e-08
-4.3500002e-08
-4.27e-08
-4.2e-08
-4.12e-08
-4.04e-08
-3.93e-08
-3.8099998e-08
-3.93e-08
-4.04e-08
-4.2e-08
-4.23e-08
-4.23e-08
-4.23e-08
-3.9700005e-08
-3.8899998e-08
-3.93e-08
-3.9700005e-08
-3.9700005e-08
-3.8099998e-08
-3.55e-08
-3.2e-08
-2.98e-08
-2.82e-08
-2.94e-08
-2.98e-08
-2.94e-08
-2.82e-08
-2.6700004e-08
-2.3299998e-08
-2.06e-08
-1.8300002e-08
-1.75e-08
-1.64e-08
-1.2999999e-08
-1.11e-08
-1.14e-08
-9.2e-09
-5.0000004e-09
-7.9999996e-10
-2.3e-09
-3.8e-09
-5.3000004e-09
-3.8e-09
-2.7e-09
-1.1e-09
3.9999998e-10
3.8e-09
6.8999997e-09
1.26e-08
1.49e-08
1.26e-08
1.11e-08
1.9500002e-08
3.4e-08
5.2300003e-08
6.29e-08
6.7900004e-08
6.7100004e-08
6.7500004e-08
6.33e-08
4.88e-08
2.4800002e-08
0.0
-1.26e-08
-1.26e-08
-8e-09
-6.8999997e-09
-7.6e-09
-7.1999997e-09
-7.1999997e-09
-8.8e-09
-9.5e-09
-7.1999997e-09
-3.1000003e-09
-8.4e-09
-1.2999999e-08
4.6500002e-08
2.2159999e-07
4.6200006e-07
7.0920004e-07
1.0077999e-06
1.3297999e-06
1.4168e-06
1.0567001e-06
4.211e-07
-4.92e-08
-1.377e-07
-3.51e-08
-1.4499999e-08
-9.31e-08
-1.4759999e-07
-1.5340001e-07
-1.572e-07
-1.595e-07
-1.598e-07
-1.5750001e-07
-1.5340001e-07
-1.472e-07
-1.392e-07
-1.305e-07
-1.24e-07
-1.14100004e-07
-1.049e-07
-9.65e-08
-8.74e-08
-7.71e-08
-6.449999e-08
-4.88e-08
-3.55e-08
-2.29e-08
-1.0700002e-08
9.2e-09
3.36e-08
6.1399994e-08
8.4700005e-08
1.0340001e-07
1.221e-07
1.408e-07
1.5909998e-07
1.8690001e-07
2.285e-07
2.7849998e-07
3.22e-07
3.6050002e-07
4.0089998e-07
4.4170005e-07
4.719e-07
4.864e-07
4.8600003e-07
4.7569998e-07
4.467e-07
4.0509997e-07
3.567e-07
3.0439998e-07
2.4339997e-07
1.698e-07
8.93e-08
1.14e-08
-5.91e-08
-1.2169998e-07
-1.7810001e-07
-2.239e-07
-2.6249998e-07
-2.934e-07
-3.159e-07
-3.307e-07
-3.4030003e-07
-3.441e-07
-3.445e-07
-3.4030003e-07
-3.3570004e-07
-3.292e-07
-3.2390003e-07
-3.2079998e-07
-3.193e-07
-3.162e-07
-3.0980001e-07
-3.021e-07
-2.9679998e-07
-2.8920002e-07
-2.808e-07
-2.747e-07
-2.7579998e-07
-2.7579998e-07
-2.64e-07
-2.4189998e-07
-2.239e-07
-2.1360003e-07
-2.106e-07
-2.0680002e-07
-2.0479999e-07
-2.0640003e-07
-2.0710002e-07
-2.06e-07
-2.083e-07
-2.1630001e-07
-2.251e-07
-2.27e-07
-2.247e-07
-2.22e-07
-2.22e-07
-2.2239999e-07
-2.2280001e-07
-2.2159999e-07
-2.1860002e-07
-2.151e-07
-2.113e-07
-2.083e-07
-2.056e-07
-2.037e-07
-2.0139998e-07
-1.968e-07
-1.9149999e-07
-1.8499999e-07
-1.8040001e-07
-1.762e-07
-1.7090001e-07
-1.6519999e-07
-1.61e-07
-1.568e-07
-1.541e-07
-1.507e-07
-1.45e-07
-1.408e-07
-1.3619999e-07
-1.312e-07
-1.286e-07
-1.259e-07
-1.221e-07
-1.1750001e-07
-1.129e-07
-1.099e-07
-1.064e-07
-1.038e-07
-1.0219999e-07
-9.96e-08
-9.7299996e-08
-9.380001e-08
-9.12e-08
-8.93e-08
-8.960001e-08
-8.89e-08
-8.74e-08
-8.620001e-08
-8.39e-08
-8.2e-08
-8.16e-08
-8.05e-08
-7.8199996e-08
-7.48e-08
-7.3200006e-08
-7.2899994e-08
-7.25e-08
-7.02e-08
-6.7100004e-08
-6.37e-08
-6.1799994e-08
-6.1399994e-08
-6.1e-08
-6.07e-08
-5.7599998e-08
-5.53e-08
-5.5700003e-08
-5.61e-08
-5.2599997e-08
-5.04e-08
-4.88e-08
-5.1099995e-08
-5.15e-08
-4.84e-08
-4.58e-08
-4.54e-08
-4.6900006e-08
-4.6200004e-08
-4.2e-08
-3.93e-08
-3.8899998e-08
-4.0099998e-08
-3.93e-08
-3.8899998e-08
-3.8499998e-08
-3.8899998e-08
-3.8099998e-08
-3.8099998e-08
-3.59e-08
-3.6200003e-08
-3.6200003e-08
-3.78e-08
-3.6600003e-08
-3.55e-08
-3.2e-08
-3.13e-08
-2.94e-08
-2.7500002e-08
-2.52e-08
-2.25e-08
-1.9500002e-08
-2.17e-08
-2.29e-08
-2.44e-08
-2.44e-08
-2.29e-08
-2.17e-08
-2.1400004e-08
-2.1e-08
-2.1400004e-08
-2.25e-08
-2.2099998e-08
-2.1400004e-08
-1.98e-08
-1.79e-08
-1.6e-08
-1.53e-08
-1.53e-08
-1.41e-08
-1.41e-08
-1.33999984e-08
-1.37e-08
-1.4499999e-08
-1.53e-08
-1.22e-08
-8.8e-09
-6.8999997e-09
-7.1999997e-09
-7.1999997e-09
-5.3000004e-09
-3.3999998e-09
-3.3999998e-09
-3.3999998e-09
-1.9e-09
-3.9999998e-10
-1.1e-09
-1.5e-09
-1.9e-09
-1.1e-09
7.9999996e-10
1.9e-09
3.1000003e-09
3.8e-09
2.7e-09
1.5e-09
1.1e-09
1.5e-09
2.3e-09
1.9e-09
1.1e-09
1.5e-09
5.7e-09
8e-09
6.8999997e-09
3.1000003e-09
4.2e-09
1.33999984e-08
3.05e-08
4.6500002e-08
5.9899996e-08
6.48e-08
6.6e-08
6.56e-08
5.9500007e-08
4.23e-08
1.53e-08
-8.4e-09
-1.68e-08
-1.26e-08
-5.7e-09
-3.8e-09
-1.5e-09
-2.7e-09
-4.2e-09
4.58e-08
2.0680002e-07
4.4440003e-07
6.68e-07
8.986999e-07
1.1921e-06
1.3752e-06
1.1753e-06
6.107e-07
6.64e-08
-1.32e-07
-5.84e-08
-1.9e-09
-6.52e-08
-1.354e-07
-1.53e-07
-1.5340001e-07
-1.61e-07
-1.625e-07
-1.6140001e-07
-1.572e-07
-1.503e-07
-1.411e-07
-1.324e-07
-1.2470001e-07
-1.18600006e-07
-1.087e-07
-9.61e-08
-8.2e-08
-7.02e-08
-6.03e-08
-5.000001e-08
-3.6600003e-08
-1.91e-08
-2.7e-09
1.22e-08
2.7799999e-08
4.54e-08
6.37e-08
8.2e-08
1.02600005e-07
1.282e-07
1.625e-07
1.976e-07
2.3160003e-07
2.6210003e-07
2.941e-07
3.2350002e-07
3.517e-07
3.799e-07
4.1429996e-07
4.5090005e-07
4.7530003e-07
4.8370003e-07
4.856e-07
4.826e-07
4.6269997e-07
4.169e-07
3.483e-07
2.6589998e-07
1.778e-07
8.93e-08
9.2e-09
-5.5700003e-08
-1.11400006e-07
-1.648e-07
-2.1210002e-07
-2.491e-07
-2.773e-07
-2.983e-07
-3.1320002e-07
-3.2309998e-07
-3.292e-07
-3.342e-07
-3.3570004e-07
-3.3340004e-07
-3.288e-07
-3.2350002e-07
-3.201e-07
-3.162e-07
-3.105e-07
-3.029e-07
-2.953e-07
-2.899e-07
-2.827e-07
-2.7309997e-07
-2.655e-07
-2.5830002e-07
-2.51e-07
-2.445e-07
-2.388e-07
-2.342e-07
-2.285e-07
-2.1710001e-07
-2.01e-07
-1.8690001e-07
-1.8009999e-07
-1.793e-07
-1.8009999e-07
-1.8009999e-07
-1.8009999e-07
-1.7890001e-07
-1.778e-07
-1.7970001e-07
-1.884e-07
-2.0219998e-07
-2.102e-07
-2.1170001e-07
-2.0749998e-07
-2.0710002e-07
-2.0939999e-07
-2.113e-07
-2.0900002e-07
-2.06e-07
-2.037e-07
-2.026e-07
-2.0139998e-07
-1.987e-07
-1.926e-07
-1.873e-07
-1.8200002e-07
-1.7699999e-07
-1.728e-07
-1.682e-07
-1.648e-07
-1.606e-07
-1.545e-07
-1.4839999e-07
-1.4380001e-07
-1.4e-07
-1.3580001e-07
-1.2929999e-07
-1.255e-07
-1.213e-07
-1.1900001e-07
-1.1630001e-07
-1.14100004e-07
-1.106e-07
-1.0760001e-07
-1.03e-07
-9.920001e-08
-9.7999994e-08
-9.57e-08
-9.23e-08
-8.89e-08
-8.429999e-08
-7.8199996e-08
-7.2899994e-08
-6.7100004e-08
-6.37e-08
-6.26e-08
-6.7500004e-08
-7.71e-08
-8.13e-08
-7.51e-08
-6.1e-08
-5.2300003e-08
-5.3400008e-08
-5.42e-08
-4.5e-08
-3.01e-08
-2.29e-08
-2.6700004e-08
-3.93e-08
-5.61e-08
-7.17e-08
-8.05e-08
-7.93e-08
-7.17e-08
-6.87e-08
-6.7500004e-08
-6.7900004e-08
-6.9399995e-08
-7.17e-08
-7.13e-08
-6.9399995e-08
-6.64e-08
-6.48e-08
-6.1799994e-08
-5.84e-08
-5.15e-08
-4.92e-08
-4.08e-08
3.8099998e-08
2.495e-07
5.333e-07
7.969e-07
1.0555e-06
1.3e-06
1.3386001e-06
9.838e-07
3.857e-07
-5.7999998e-08
-1.3889999e-07
-3.28e-08
-5.7e-09
-8.01e-08
-1.312e-07
-1.347e-07
-1.3729999e-07
-1.4460001e-07
-1.4380001e-07
-1.3850001e-07
-1.335e-07
-1.2779999e-07
-1.2169998e-07
-1.11e-07
-1.0030001e-07
-9.31e-08
-8.35e-08
-7.4000006e-08
-6.33e-08
-5.04e-08
-3.7000003e-08
-2.3299998e-08
-1.11e-08
1.9e-09
1.68e-08
3.4e-08
5.42e-08
7.48e-08
9.57e-08
1.213e-07
1.5219999e-07
1.835e-07
2.155e-07
2.491e-07
2.865e-07
3.2620002e-07
3.6510002e-07
4.032e-07
4.364e-07
4.6390002e-07
4.848e-07
4.951e-07
4.974e-07
4.8600003e-07
4.5619998e-07
4.0930001e-07
3.456e-07
2.6930002e-07
1.846e-07
9.99e-08
1.79e-08
-5.6800005e-08
-1.244e-07
-1.8269999e-07
-2.3119999e-07
-2.7160002e-07
-3.025e-07
-3.2269998e-07
-3.365e-07
-3.471e-07
-3.548e-07
-3.567e-07
-3.532e-07
-3.49e-07
-3.445e-07
-3.3869998e-07
-3.315e-07
-3.242e-07
-3.1780002e-07
-3.1200003e-07
-3.059e-07
-3.006e-07
-2.9560002e-07
-2.8760002e-07
-2.7849998e-07
-2.72e-07
-2.689e-07
-2.651e-07
-2.5830002e-07
-2.518e-07
-2.4570002e-07
-2.3959998e-07
-2.346e-07
-2.2930003e-07
-2.2660001e-07
-2.239e-07
-2.1899999e-07
-2.1439998e-07
-2.113e-07
-2.1099999e-07
-2.0939999e-07
-2.0749998e-07
-2.01e-07
-1.926e-07
-1.884e-07
-1.8690001e-07
-1.8809999e-07
-1.892e-07
-1.8690001e-07
-1.823e-07
-1.778e-07
-1.7400001e-07
-1.6940001e-07
-1.671e-07
-1.6519999e-07
-1.6170002e-07
-1.587e-07
-1.587e-07
-1.6140001e-07
-1.579e-07
-1.4569999e-07
-1.2890001e-07
-1.171e-07
-1.099e-07
-9.57e-08
-7.25e-08
-5.42e-08
-5.6499996e-08
-8.429999e-08
-1.15199995e-07
-1.312e-07
-1.297e-07
-1.1900001e-07
-1.10200006e-07
-1.0570001e-07
-1.0570001e-07
-1.06800016e-07
-1.053e-07
-1.0109999e-07
-9.65e-08
-9.46e-08
-9.7299996e-08
-9.96e-08
-9.61e-08
-8.89e-08
-8.35e-08
-8.05e-08
-8.24e-08
-6.7500004e-08
4.0099998e-08
2.64e-07
5.333e-07
8.11e-07
1.1223001e-06
1.3503999e-06
1.2436001e-06
7.3970006e-07
1.4569999e-07
-1.5600001e-07
-1.244e-07
-2.8999999e-08
-5.46e-08
-1.286e-07
-1.553e-07
-1.5260001e-07
-1.5260001e-07
-1.5369999e-07
-1.507e-07
-1.4380001e-07
-1.3500001e-07
-1.27e-07
-1.2049999e-07
-1.11400006e-07
-9.96e-08
-8.4700005e-08
-7.060001e-08
-6.07e-08
-5.3400008e-08
-4.23e-08
-2.3299998e-08
-2.7e-09
1.8300002e-08
3.59e-08
5.1099995e-08
6.7100004e-08
8.0899994e-08
9.2700006e-08
1.106e-07
1.419e-07
1.865e-07
2.323e-07
2.728e-07
3.1390002e-07
3.6160006e-07
4.105e-07
4.5050004e-07
4.784e-07
4.982e-07
5.047e-07
5.0010004e-07
4.8679993e-07
4.6959997e-07
4.4099997e-07
3.933e-07
3.246e-07
2.411e-07
1.514e-07
6.56e-08
-1.49e-08
-8.8499995e-08
-1.5369999e-07
-2.0749998e-07
-2.522e-07
-2.861e-07
-3.147e-07
-3.3340004e-07
-3.4260003e-07
-3.468e-07
-3.498e-07
-3.529e-07
-3.517e-07
-3.468e-07
-3.4030003e-07
-3.3450004e-07
-3.288e-07
-3.2269998e-07
-3.1390002e-07
-3.0750002e-07
-3.014e-07
-2.9600002e-07
-2.861e-07
-2.7160002e-07
-2.552e-07
-2.415e-07
-2.3309998e-07
-2.2889999e-07
-2.2739998e-07
-2.277e-07
-2.2540002e-07
-2.2049998e-07
-2.1480001e-07
-2.1289999e-07
-2.1320001e-07
-2.151e-07
-2.193e-07
-2.2430001e-07
-2.251e-07
-2.251e-07
-2.235e-07
-2.22e-07
-2.2130001e-07
-2.201e-07
-2.178e-07
-2.1710001e-07
-2.1289999e-07
-2.0939999e-07
-2.037e-07
-1.987e-07
-1.926e-07
-1.8770001e-07
-1.8080003e-07
-1.7699999e-07
-1.736e-07
-1.698e-07
-1.644e-07
-1.579e-07
-1.5219999e-07
-1.453e-07
-1.392e-07
-1.354e-07
-1.3310002e-07
-1.301e-07
-1.251e-07
-1.1900001e-07
-1.148e-07
-1.129e-07
-1.106e-07
-1.0760001e-07
-1.038e-07
-9.920001e-08
-9.57e-08
-9.42e-08
-9.2700006e-08
-9.08e-08
-8.8499995e-08
-8.54e-08
-8.16e-08
-7.8199996e-08
-7.51e-08
-7.48e-08
-7.51e-08
-7.4000006e-08
-7.1e-08
-6.8300004e-08
-6.6e-08
-6.52e-08
-6.37e-08
-6.1799994e-08
-6.1399994e-08
-6.03e-08
-5.6800005e-08
-5.3400008e-08
-5.0700002e-08
-5.0700002e-08
-5.2300003e-08
-5.2300003e-08
-5.000001e-08
-4.58e-08
-4.3500002e-08
-4.27e-08
-4.3100005e-08
-4.27e-08
-4.04e-08
-3.9700005e-08
-3.8899998e-08
-3.78e-08
-3.6600003e-08
-3.4699998e-08
-3.17e-08
-3.01e-08
-2.98e-08
-3.2e-08
-3.28e-08
-3.2e-08
-2.8999999e-08
-2.7799999e-08
-2.71e-08
-2.59e-08
-2.25e-08
-2.17e-08
-2.06e-08
-2.17e-08
-2.37e-08
-2.5599999e-08
-2.5599999e-08
-2.5599999e-08
-2.52e-08
-2.44e-08
-2.44e-08
-2.29e-08
-2.2099998e-08
-2.1400004e-08
-2.2099998e-08
-2.06e-08
-1.87e-08
-1.72e-08
-1.75e-08
-1.64e-08
-1.56e-08
-1.72e-08
-1.79e-08
-1.72e-08
-1.41e-08
-1.33999984e-08
-1.6e-08
-1.8300002e-08
-1.8300002e-08
-1.8300002e-08
-1.91e-08
-2.06e-08
-1.9500002e-08
-1.49e-08
-1.14e-08
-1.0700002e-08
-1.26e-08
-1.53e-08
-1.53e-08
-1.53e-08
-1.4499999e-08
-1.68e-08
-1.68e-08
-1.53e-08
-1.53e-08
-1.6e-08
-1.64e-08
-1.53e-08
-1.33999984e-08
-1.26e-08
-1.4499999e-08
-1.6e-08
-1.75e-08
-1.8300002e-08
-1.79e-08
-1.75e-08
-1.68e-08
-1.64e-08
-1.75e-08
-1.6e-08
-1.53e-08
-1.64e-08
-1.75e-08
-2.2099998e-08
-2.6700004e-08
-2.6700004e-08
-2.06e-08
-1.11e-08
-5.7e-09
-5.3000004e-09
1.5e-09
1.91e-08
4.08e-08
4.6500002e-08
3.05e-08
3.3999998e-09
-2.1400004e-08
-3.4299998e-08
-3.51e-08
-3.01e-08
-2.5599999e-08
-2.4e-08
-2.44e-08
-2.4800002e-08
-2.3299998e-08
-2.29e-08
-2.44e-08
-2.1e-08
-1.72e-08
-2.5599999e-08
-2.86e-08
4.0099998e-08
2.2540002e-07
4.6540006e-07
6.95e-07
9.747e-07
1.2923999e-06
1.3939e-06
1.0486999e-06
4.204e-07
-5.15e-08
-1.4419999e-07
-4.5e-08
-2.6299999e-08
-1.06800016e-07
-1.6290001e-07
-1.6940001e-07
-1.698e-07
-1.717e-07
-1.663e-07
-1.621e-07
-1.568e-07
-1.499e-07
-1.419e-07
-1.328e-07
-1.2279999e-07
-1.144e-07
-1.049e-07
-9.23e-08
-7.86e-08
-6.56e-08
-5.5700003e-08
-4.6500002e-08
-3.59e-08
-1.8300002e-08
2.7e-09
2.37e-08
4.3100005e-08
5.9500007e-08
7.2899994e-08
8.7000004e-08
9.99e-08
1.171e-07
1.4800001e-07
1.9040003e-07
2.3270003e-07
2.689e-07
3.0479998e-07
3.471e-07
3.902e-07
4.2340002e-07
4.4360002e-07
4.5320002e-07
4.5320002e-07
4.4520002e-07
4.2989998e-07
4.166e-07
3.975e-07
3.624e-07
3.105e-07
2.453e-07
1.728e-07
9.84e-08
2.44e-08
-4.3900002e-08
-1.0719999e-07
-1.625e-07
-2.106e-07
-2.487e-07
-2.789e-07
-3.01e-07
-3.1780002e-07
-3.281e-07
-3.319e-07
-3.284e-07
-3.2650001e-07
-3.2690002e-07
-3.2690002e-07
-3.22e-07
-3.1430002e-07
-3.0669997e-07
-3.0019999e-07
-2.934e-07
-2.857e-07
-2.819e-07
-2.815e-07
-2.7770002e-07
-2.6470002e-07
-2.4410002e-07
-2.2739998e-07
-2.174e-07
-2.1289999e-07
-2.102e-07
-2.06e-07
-2.0179999e-07
-2.0029998e-07
-1.9840002e-07
-2.0219998e-07
-2.1099999e-07
-2.2159999e-07
-2.2889999e-07
-2.2930003e-07
-2.27e-07
-2.258e-07
-2.2619999e-07
-2.277e-07
-2.2739998e-07
-2.2619999e-07
-2.2320002e-07
-2.209e-07
-2.1630001e-07
-2.1320001e-07
-2.102e-07
-2.0640003e-07
-2.0139998e-07
-1.965e-07
-1.9339998e-07
-1.9339998e-07
-1.892e-07
-1.835e-07
-1.755e-07
-1.671e-07
-1.621e-07
-1.572e-07
-1.5260001e-07
-1.4839999e-07
-1.434e-07
-1.392e-07
-1.3619999e-07
-1.3160002e-07
-1.266e-07
-1.213e-07
-1.194e-07
-1.16699994e-07
-1.15199995e-07
-1.11800006e-07
-1.0829999e-07
-1.0450001e-07
-1.019e-07
-9.7999994e-08
-9.350001e-08
-8.5799996e-08
-8.01e-08
-7.74e-08
-7.7799996e-08
-7.74e-08
-7.970001e-08
-8.4700005e-08
-8.5799996e-08
-7.7799996e-08
-6.48e-08
-6.03e-08
-6.449999e-08
-6.41e-08
-5.0700002e-08
-3.4299998e-08
-2.71e-08
-3.24e-08
-4.6200004e-08
-6.33e-08
-7.71e-08
-8.24e-08
-7.71e-08
-6.9399995e-08
-6.9399995e-08
-7.1e-08
-6.98e-08
-6.64e-08
-6.29e-08
-6.29e-08
-6.29e-08
-6.29e-08
-5.9899996e-08
-5.6499996e-08
-5.2300003e-08
-4.58e-08
-4.08e-08
-2.44e-08
7.209999e-08
2.9600002e-07
5.7560004e-07
8.236e-07
1.0662e-06
1.2821e-06
1.2691e-06
8.785e-07
2.9679998e-07
-9.0400015e-08
-1.225e-07
-1.1800001e-08
-1.9e-09
-8.05e-08
-1.2359999e-07
-1.24e-07
-1.2279999e-07
-1.251e-07
-1.251e-07
-1.221e-07
-1.1900001e-07
-1.1369999e-07
-1.06e-07
-9.7999994e-08
-9e-08
-8.16e-08
-7.2899994e-08
-6.1799994e-08
-4.92e-08
-3.6200003e-08
-2.52e-08
-1.2999999e-08
3.9999998e-10
1.33999984e-08
2.82e-08
4.3100005e-08
6.03e-08
7.970001e-08
1.019e-07
1.2359999e-07
1.488e-07
1.762e-07
2.106e-07
2.487e-07
2.8760002e-07
3.2309998e-07
3.563e-07
3.9250003e-07
4.2649998e-07
4.555e-07
4.742e-07
4.8600003e-07
4.8789997e-07
4.776e-07
4.5239997e-07
4.112e-07
3.532e-07
2.834e-07
2.029e-07
1.225e-07
4.2e-08
-3.05e-08
-1.0069999e-07
-1.595e-07
-2.0900002e-07
-2.4680003e-07
-2.762e-07
-2.972e-07
-3.1090002e-07
-3.2079998e-07
-3.25e-07
-3.2650001e-07
-3.2690002e-07
-3.2350002e-07
-3.162e-07
-3.0980001e-07
-3.0439998e-07
-3.017e-07
-2.9750004e-07
-2.899e-07
-2.819e-07
-2.7389999e-07
-2.67e-07
-2.59e-07
-2.4989998e-07
-2.4189998e-07
-2.384e-07
-2.335e-07
-2.2889999e-07
-2.209e-07
-2.1439998e-07
-2.0939999e-07
-2.045e-07
-2.007e-07
-1.98e-07
-1.9570001e-07
-1.9380002e-07
-1.892e-07
-1.8540001e-07
-1.8269999e-07
-1.8040001e-07
-1.8080003e-07
-1.823e-07
-1.8200002e-07
-1.7890001e-07
-1.736e-07
-1.682e-07
-1.6519999e-07
-1.663e-07
-1.6900002e-07
-1.717e-07
-1.7010001e-07
-1.671e-07
-1.6560001e-07
-1.637e-07
-1.61e-07
-1.5600001e-07
-1.5219999e-07
-1.4839999e-07
-1.4460001e-07
-1.423e-07
-1.4e-07
-1.3850001e-07
-1.369e-07
-1.3729999e-07
-1.404e-07
-1.4269999e-07
-1.4e-07
-1.3619999e-07
-1.3160002e-07
-1.286e-07
-1.266e-07
-1.2279999e-07
-1.213e-07
-1.221e-07
-1.225e-07
-1.2049999e-07
-1.1790001e-07
-1.144e-07
-1.11e-07
-1.06e-07
-1.0149999e-07
-9.88e-08
-9.99e-08
-1.0149999e-07
-9.88e-08
-8.93e-08
-7.71e-08
-7.13e-08
-6.7900004e-08
-5.84e-08
-3.78e-08
-1.9500002e-08
-1.98e-08
-3.9700005e-08
-6.37e-08
-7.9e-08
-8.05e-08
-7.55e-08
-7.02e-08
-6.7500004e-08
-6.7100004e-08
-6.6e-08
-5.9500007e-08
-5.15e-08
-4.9600004e-08
-5.04e-08
-4.88e-08
-4.27e-08
-3.6200003e-08
-3.6600003e-08
-4.58e-08
-2.8999999e-08
8.74e-08
3.147e-07
5.661e-07
8.148e-07
1.1105e-06
1.3515e-06
1.2649999e-06
7.725e-07
1.774e-07
-1.2890001e-07
-9.920001e-08
-6.8999997e-09
-3.8899998e-08
-1.213e-07
-1.545e-07
-1.5639999e-07
-1.5830001e-07
-1.598e-07
-1.606e-07
-1.5909998e-07
-1.499e-07
-1.3729999e-07
-1.251e-07
-1.16699994e-07
-1.091e-07
-9.99e-08
-8.7000004e-08
-7.13e-08
-5.6800005e-08
-4.2e-08
-2.59e-08
-5.0000004e-09
1.91e-08
4.3500002e-08
6.41e-08
7.5900005e-08
8.66e-08
9.88e-08
1.16699994e-07
1.423e-07
1.7699999e-07
2.201e-07
2.67e-07
3.09e-07
3.475e-07
3.941e-07
4.4290002e-07
4.814e-07
5.035e-07
5.1920006e-07
5.3409997e-07
5.428e-07
5.398e-07
5.276e-07
5.0849997e-07
4.7490002e-07
4.2150003e-07
3.555e-07
2.804e-07
2.037e-07
1.27e-07
5.6499996e-08
-4.6e-09
-5.7999998e-08
-1.038e-07
-1.4269999e-07
-1.774e-07
-2.0710002e-07
-2.323e-07
-2.506e-07
-2.594e-07
-2.5709997e-07
-2.483e-07
-2.3650001e-07
-2.319e-07
-2.3379998e-07
-2.392e-07
-2.407e-07
-2.335e-07
-2.209e-07
-2.098e-07
-2.0219998e-07
-1.9950001e-07
-1.987e-07
-1.9720002e-07
-1.896e-07
-1.755e-07
-1.5909998e-07
-1.4569999e-07
-1.369e-07
-1.297e-07
-1.251e-07
-1.263e-07
-1.3310002e-07
-1.4569999e-07
-1.648e-07
-1.846e-07
-2.007e-07
-2.0900002e-07
-2.1360003e-07
-2.167e-07
-2.1860002e-07
-2.2130001e-07
-2.2660001e-07
-2.296e-07
-2.285e-07
-2.1899999e-07
-2.0749998e-07
-1.961e-07
-1.8770001e-07
-1.816e-07
-1.747e-07
-1.671e-07
-1.5750001e-07
-1.4689999e-07
-1.3619999e-07
-1.286e-07
-1.2169998e-07
-1.148e-07
-1.099e-07
-1.0219999e-07
-9.23e-08
-8.16e-08
-7.25e-08
-6.68e-08
-6.48e-08
-6.1799994e-08
-5.9899996e-08
-6.03e-08
-6.1799994e-08
-6.29e-08
-6.1799994e-08
-6.03e-08
-5.7999998e-08
-5.53e-08
-5.3400008e-08
-5.42e-08
-5.46e-08
-4.84e-08
-3.8899998e-08
-2.86e-08
-2.37e-08
-2.25e-08
-2.29e-08
-2.5599999e-08
-3.32e-08
-4.0099998e-08
-3.78e-08
-2.5599999e-08
-1.64e-08
-1.75e-08
-1.87e-08
-8.4e-09
9.2e-09
1.98e-08
1.64e-08
-3.9999998e-10
-2.06e-08
-4.27e-08
-5.6499996e-08
-5.9500007e-08
-5.4900003e-08
-4.88e-08
-4.4599997e-08
-4.23e-08
-4.4300002e-08
-4.6200004e-08
-4.6900006e-08
-4.73e-08
-4.84e-08
-5.04e-08
-5.04e-08
-4.77e-08
-4.54e-08
-4.58e-08
-3.59e-08
5.15e-08
2.72e-07
5.573e-07
8.1330006e-07
1.0574e-06
1.2825e-06
1.2913e-06
9.182e-07
3.3039998e-07
-8.01e-08
-1.343e-07
-2.7500002e-08
-1.2999999e-08
-9.12e-08
-1.3729999e-07
-1.369e-07
-1.3729999e-07
-1.411e-07
-1.3889999e-07
-1.335e-07
-1.2890001e-07
-1.221e-07
-1.148e-07
-1.0409999e-07
-9.350001e-08
-8.32e-08
-7.25e-08
-6.1799994e-08
-5.1099995e-08
-4.04e-08
-2.94e-08
-1.53e-08
-4.6e-09
5.0000004e-09
1.64e-08
3.2e-08
5.0700002e-08
6.98e-08
9.31e-08
1.183e-07
1.4839999e-07
1.774e-07
2.045e-07
2.3540001e-07
2.697e-07
3.0479998e-07
3.365e-07
3.666e-07
3.975e-07
4.284e-07
4.5320002e-07
4.6810004e-07
4.719e-07
4.673e-07
4.49e-07
4.1350003e-07
3.597e-07
2.9260002e-07
2.182e-07
1.3850001e-07
5.7999998e-08
-1.79e-08
-8.5799996e-08
-1.431e-07
-1.9e-07
-2.2809999e-07
-2.5749998e-07
-2.804e-07
-2.998e-07
-3.105e-07
-3.159e-07
-3.1660002e-07
-3.147e-07
-3.1320002e-07
-3.1240003e-07
-3.0860002e-07
-3.021e-07
-2.949e-07
-2.8879998e-07
-2.838e-07
-2.7960002e-07
-2.762e-07
-2.708e-07
-2.64e-07
-2.594e-07
-2.56e-07
-2.537e-07
-2.502e-07
-2.453e-07
-2.407e-07
-2.392e-07
-2.3800003e-07
-2.388e-07
-2.369e-07
-2.342e-07
-2.3080001e-07
-2.285e-07
-2.251e-07
-2.22e-07
-2.1899999e-07
-2.209e-07
-2.2239999e-07
-2.209e-07
-2.151e-07
-2.1210002e-07
-2.102e-07
-2.0939999e-07
-2.0640003e-07
-2.0479999e-07
-2.06e-07
-2.0640003e-07
-2.045e-07
-2.01e-07
-1.987e-07
-1.9570001e-07
-1.9380002e-07
-1.911e-07
-1.884e-07
-1.865e-07
-1.858e-07
-1.862e-07
-1.839e-07
-1.778e-07
-1.717e-07
-1.6859998e-07
-1.6900002e-07
-1.7010001e-07
-1.7010001e-07
-1.7090001e-07
-1.7049999e-07
-1.678e-07
-1.621e-07
-1.598e-07
-1.598e-07
-1.598e-07
-1.595e-07
-1.579e-07
-1.5600001e-07
-1.507e-07
-1.431e-07
-1.3619999e-07
-1.3500001e-07
-1.408e-07
-1.495e-07
-1.5600001e-07
-1.5830001e-07
-1.6140001e-07
-1.644e-07
-1.6519999e-07
-1.568e-07
-1.419e-07
-1.305e-07
-1.305e-07
-1.369e-07
-1.408e-07
-1.3889999e-07
-1.3850001e-07
-1.408e-07
-1.419e-07
-1.408e-07
-1.431e-07
-1.4569999e-07
-1.431e-07
-1.32e-07
-1.225e-07
-1.18600006e-07
-1.11800006e-07
-9.12e-08
-6.52e-08
-5.19e-08
-6.26e-08
-8.7000004e-08
-1.087e-07
-1.1630001e-07
-1.148e-07
-1.087e-07
-1.019e-07
-9.65e-08
-9.380001e-08
-9.54e-08
-9.7999994e-08
-1.019e-07
-1.0340001e-07
-1.0149999e-07
-9.7299996e-08
-9.08e-08
-8.74e-08
-9.19e-08
-7.93e-08
2.44e-08
2.3800003e-07
4.852e-07
7.3509995e-07
1.0403e-06
1.3039e-06
1.2527e-06
7.797e-07
1.7400001e-07
-1.61e-07
-1.4839999e-07
-5.4900003e-08
-7.71e-08
-1.541e-07
-1.8200002e-07
-1.7699999e-07
-1.7849999e-07
-1.812e-07
-1.7890001e-07
-1.747e-07
-1.6519999e-07
-1.5490001e-07
-1.4460001e-07
-1.3660001e-07
-1.301e-07
-1.244e-07
-1.16699994e-07
-1.08e-07
-9.7299996e-08
-8.8499995e-08
-7.6700005e-08
-5.9500007e-08
-3.8899998e-08
-1.49e-08
5.0000004e-09
2.06e-08
3.4299998e-08
4.92e-08
6.33e-08
7.5900005e-08
9.54e-08
1.2890001e-07
1.717e-07
2.125e-07
2.502e-07
2.9139997e-07
3.315e-07
3.6620003e-07
3.941e-07
4.1499996e-07
4.238e-07
4.1620004e-07
3.986e-07
3.826e-07
3.7080002e-07
3.479e-07
3.0329997e-07
2.3959998e-07
1.659e-07
8.8499995e-08
1.68e-08
-5.000001e-08
-1.11400006e-07
-1.682e-07
-2.182e-07
-2.59e-07
-2.9260002e-07
-3.17e-07
-3.3039998e-07
-3.349e-07
-3.3450004e-07
-3.33e-07
-3.307e-07
-3.254e-07
-3.204e-07
-3.162e-07
-3.113e-07
-3.006e-07
-2.8920002e-07
-2.7810003e-07
-2.6930002e-07
-2.59e-07
-2.51e-07
-2.502e-07
-2.522e-07
-2.4410002e-07
-2.258e-07
-2.0409999e-07
-1.9e-07
-1.8420002e-07
-1.8040001e-07
-1.736e-07
-1.6859998e-07
-1.663e-07
-1.7010001e-07
-1.7810001e-07
-1.8770001e-07
-1.965e-07
-2.033e-07
-2.0680002e-07
-2.0900002e-07
-2.098e-07
-2.1210002e-07
-2.1480001e-07
-2.1360003e-07
-2.098e-07
-2.0640003e-07
-2.0179999e-07
-1.9720002e-07
-1.942e-07
-1.9840002e-07
-2.0680002e-07
-2.1320001e-07
-2.1630001e-07
-2.174e-07
-2.2239999e-07
-2.2619999e-07
-2.258e-07
-2.2049998e-07
-2.083e-07
-1.9570001e-07
-1.884e-07
-1.835e-07
-1.755e-07
-1.606e-07
-1.431e-07
-1.286e-07
-1.1979999e-07
-1.091e-07
-9.84e-08
-9.23e-08
-9.23e-08
-9.350001e-08
-8.960001e-08
-8.05e-08
-6.98e-08
-6.449999e-08
-6.64e-08
-7.2899994e-08
-7.7799996e-08
-7.209999e-08
-5.8699996e-08
-4.4300002e-08
-3.74e-08
-3.59e-08
