ECG Amplitude (mV)
-0.00161285400390625
-0.0012664794921875
-0.00086212158203125
-0.000559234619140625
-0.00035209655761718754
-0.0002105712890625
-0.00012168884277343751
-6.40869140625e-05
-2.5177001953125002e-05
-4.1961669921875e-06
5.3405761718750005e-06
1.5640258789062502e-05
2.8228759765625e-05
4.15802001953125e-05
4.38690185546875e-05
4.0435791015625005e-05
4.00543212890625e-05
5.2261352539062504e-05
7.209777832031251e-05
8.544921875000001e-05
8.6212158203125e-05
8.354187011718751e-05
8.58306884765625e-05
9.498596191406251e-05
0.000106048583984375
0.00011711120605468751
0.00012664794921875
0.000135040283203125
0.0001445770263671875
0.000154876708984375
0.0001697540283203125
0.0001926422119140625
0.00021514892578125002
0.000229644775390625
0.0002330780029296875
0.00023574829101562502
0.00024452209472656253
0.00025024414062500003
0.00024833679199218753
0.00023651123046875
0.00022621154785156252
0.000217437744140625
0.0002040863037109375
0.000183868408203125
0.000160980224609375
0.0001373291015625
0.00010643005371093751
6.90460205078125e-05
3.1280517578125004e-05
-2.2888183593750003e-06
-3.08990478515625e-05
-5.8746337890625e-05
-8.43048095703125e-05
-0.00010261535644531251
-0.0001148223876953125
-0.00012664794921875
-0.0001399993896484375
-0.00015182495117187502
-0.00015869140625
-0.00016174316406250002
-0.0001621246337890625
-0.00016136169433593752
-0.000156402587890625
-0.000147247314453125
-0.0001399993896484375
-0.0001338958740234375
-0.00012893676757812502
-0.00012512207031250002
-0.00012092590332031251
-0.0001148223876953125
-0.00010528564453125
-9.498596191406251e-05
-9.19342041015625e-05
-9.613037109375001e-05
-0.00010185241699218751
-0.00010185241699218751
-9.803771972656251e-05
-9.65118408203125e-05
-0.00010070800781250001
-0.00010643005371093751
-0.0001068115234375
-0.00010261535644531251
-9.8419189453125e-05
-0.00010223388671875
-0.000113677978515625
-0.0001220703125
-0.000118255615234375
-0.0001068115234375
-9.8419189453125e-05
-0.000101470947265625
-0.00010986328125
-0.000118255615234375
-0.00011787414550781251
-0.00011215209960937501
-0.0001068115234375
-0.00010452270507812501
-0.00010070800781250001
-9.34600830078125e-05
-8.087158203125001e-05
-6.828308105468751e-05
-6.1798095703125e-05
-7.13348388671875e-05
-9.34600830078125e-05
-0.0001155853271484375
-0.000125885009765625
-0.00012321472167968752
-0.0001194000244140625
-0.00012168884277343751
-0.00012321472167968752
-0.000118255615234375
-0.000109100341796875
-0.00010223388671875
-9.8419189453125e-05
-0.0001010894775390625
-0.0001087188720703125
-0.0001079559326171875
-7.476806640625e-05
2.44140625e-05
0.00023345947265625
0.00057830810546875
0.0010303497314453126
0.0014240264892578125
0.0014377593994140626
0.0008426666259765625
-0.00019378662109375002
-0.00115509033203125
-0.0016082763671875
-0.001520538330078125
-0.001171112060546875
-0.000823974609375
-0.0005584716796875
-0.000360107421875
-0.00022468566894531252
-0.00013847351074218752
-7.781982421875001e-05
-3.54766845703125e-05
-1.373291015625e-05
-3.814697265625e-06
6.484985351562501e-06
2.09808349609375e-05
3.47137451171875e-05
4.119873046875e-05
4.38690185546875e-05
4.57763671875e-05
5.1879882812500005e-05
6.0272216796875e-05
7.019042968750001e-05
7.8582763671875e-05
8.544921875000001e-05
9.002685546875e-05
9.34600830078125e-05
9.994506835937501e-05
0.000110626220703125
0.000121307373046875
0.000130462646484375
0.00014038085937500002
0.00015373229980468752
0.000171661376953125
0.0001911163330078125
0.00020599365234375
0.00021286010742187502
0.0002178192138671875
0.0002216339111328125
0.000225830078125
0.00022621154785156252
0.0002201080322265625
0.00020904541015625002
0.0002002716064453125
0.00019226074218750002
0.00017890930175781252
0.00015563964843750002
0.000122833251953125
8.96453857421875e-05
6.446838378906251e-05
4.3487548828125e-05
1.52587890625e-05
-2.3269653320312502e-05
-6.40869140625e-05
-9.422302246093751e-05
-0.00011405944824218751
-0.0001323699951171875
-0.0001495361328125
-0.0001605987548828125
-0.0001682281494140625
-0.00017509460449218752
-0.00017890930175781252
-0.00017700195312500002
-0.00016937255859375002
-0.0001605987548828125
-0.00015563964843750002
-0.00015220642089843752
-0.000147247314453125
-0.0001399993896484375
-0.0001361846923828125
-0.000133514404296875
-0.000131988525390625
-0.0001312255859375
-0.0001262664794921875
-0.00011978149414062501
-0.00011215209960937501
-0.00010757446289062501
-0.0001033782958984375
-0.000102996826171875
-0.0001041412353515625
-0.000106048583984375
-0.0001079559326171875
-0.00011215209960937501
-0.0001125335693359375
-0.0001110076904296875
-0.00010566711425781251
-0.000106048583984375
-0.0001125335693359375
-0.000121307373046875
-0.000128173828125
-0.0001293182373046875
-0.0001247406005859375
-0.00011901855468750001
-0.00011405944824218751
-0.00011215209960937501
-0.00011138916015625001
-0.0001129150390625
-0.00011329650878906251
-0.0001117706298828125
-0.00010528564453125
-9.803771972656251e-05
-9.3841552734375e-05
-9.0789794921875e-05
-8.277893066406251e-05
-6.98089599609375e-05
-6.1798095703125e-05
-6.637573242187501e-05
-8.544921875000001e-05
-0.00010833740234375001
-0.00012512207031250002
-0.0001312255859375
-0.000131988525390625
-0.00013084411621093752
-0.0001285552978515625
-0.00012321472167968752
-0.0001155853271484375
-0.00010566711425781251
-9.689331054687501e-05
-9.3841552734375e-05
-9.880065917968751e-05
-9.880065917968751e-05
-6.40869140625e-05
4.57763671875e-05
0.00027923583984375
0.0006507873535156251
0.0011035919189453125
0.0014545440673828125
0.0013965606689453126
0.000739288330078125
-0.000316619873046875
-0.00125885009765625
-0.001666259765625
-0.0015247344970703127
-0.0011241912841796875
-0.0007461547851562501
-0.00047607421875000004
-0.00029449462890625
-0.00017852783203125002
-0.00010528564453125
-5.645751953125e-05
-2.3651123046875e-05
-3.0517578125e-06
1.02996826171875e-05
2.3651123046875e-05
3.5095214843750004e-05
4.38690185546875e-05
4.92095947265625e-05
5.1879882812500005e-05
5.1879882812500005e-05
5.2642822265625e-05
5.83648681640625e-05
6.75201416015625e-05
7.896423339843751e-05
8.88824462890625e-05
9.422302246093751e-05
9.5367431640625e-05
9.95635986328125e-05
0.00010986328125
0.00012512207031250002
0.00014228820800781252
0.0001567840576171875
0.000170135498046875
0.00018272399902343752
0.0001953125
0.00020713806152343752
0.00021705627441406252
0.0002269744873046875
0.00023422241210937502
0.000237274169921875
0.00023422241210937502
0.00022430419921875002
0.00020904541015625002
0.000194549560546875
0.00018310546875
0.00017089843750000002
0.00015029907226562502
0.0001239776611328125
9.65118408203125e-05
7.171630859375e-05
4.5013427734375e-05
1.18255615234375e-05
-2.2125244140625003e-05
-5.07354736328125e-05
-7.171630859375e-05
-8.96453857421875e-05
-0.000106048583984375
-0.00012168884277343751
-0.0001323699951171875
-0.000139617919921875
-0.0001434326171875
-0.0001438140869140625
-0.0001415252685546875
-0.00013885498046875
-0.0001373291015625
-0.00013885498046875
-0.0001407623291015625
-0.00013847351074218752
-0.000125885009765625
-0.0001129150390625
-0.00010757446289062501
-0.000110626220703125
-0.00011024475097656251
-0.0001049041748046875
-9.3841552734375e-05
-8.468627929687501e-05
-7.896423339843751e-05
-7.476806640625e-05
-7.5531005859375e-05
-7.896423339843751e-05
-8.163452148437501e-05
-8.43048095703125e-05
-8.659362792968751e-05
-8.96453857421875e-05
-9.46044921875e-05
-0.00010070800781250001
-0.0001041412353515625
-0.000106048583984375
-0.00010375976562500001
-9.8419189453125e-05
-9.613037109375001e-05
-9.918212890625e-05
-0.00010452270507812501
-0.00010643005371093751
-0.000106048583984375
-0.000106048583984375
-0.00010566711425781251
-0.0001033782958984375
-9.994506835937501e-05
-9.803771972656251e-05
-0.0001010894775390625
-9.994506835937501e-05
-9.0789794921875e-05
-7.43865966796875e-05
-6.0272216796875e-05
-6.14166259765625e-05
-6.75201416015625e-05
-6.4849853515625e-05
-4.730224609375e-05
-3.0517578125e-05
-3.62396240234375e-05
-6.21795654296875e-05
-9.19342041015625e-05
-0.00010833740234375001
-0.000110626220703125
-0.00010833740234375001
-0.000106048583984375
-0.00011024475097656251
-0.0001148223876953125
-0.000113677978515625
-0.0001071929931640625
-9.5367431640625e-05
-8.3160400390625e-05
-8.163452148437501e-05
-9.57489013671875e-05
-0.00010261535644531251
-5.68389892578125e-05
8.735656738281251e-05
0.00036544799804687504
0.000762939453125
0.0012023925781250002
0.0014884948730468752
0.001331329345703125
0.0005962371826171875
-0.0004650115966796875
-0.00133819580078125
-0.0016574859619140625
-0.0014591217041015625
-0.001047515869140625
-0.0006809234619140625
-0.0004268646240234375
-0.0002567291259765625
-0.0001506805419921875
-8.50677490234375e-05
-4.31060791015625e-05
-2.0599365234375e-05
-7.2479248046875005e-06
7.62939453125e-06
2.288818359375e-05
3.35693359375e-05
3.7384033203125e-05
4.3487548828125e-05
5.14984130859375e-05
5.645751953125e-05
5.91278076171875e-05
6.561279296875e-05
7.8582763671875e-05
8.697509765625e-05
8.850097656250001e-05
8.659362792968751e-05
9.231567382812501e-05
0.0001068115234375
0.0001201629638671875
0.0001300811767578125
0.00013427734375
0.0001434326171875
0.0001621246337890625
0.000185394287109375
0.00020599365234375
0.0002201080322265625
0.0002292633056640625
0.0002307891845703125
0.00022811889648437502
0.0002231597900390625
0.00021705627441406252
0.0002117156982421875
0.000206756591796875
0.0002025604248046875
0.00019035339355468752
0.0001697540283203125
0.000147247314453125
0.000131988525390625
0.0001155853271484375
8.659362792968751e-05
4.6539306640625004e-05
7.62939453125e-06
-2.288818359375e-05
-4.8065185546875005e-05
-7.209777832031251e-05
-9.65118408203125e-05
-0.00011405944824218751
-0.000124359130859375
-0.00012969970703125
-0.00013084411621093752
-0.00013427734375
-0.000142669677734375
-0.0001491546630859375
-0.00014648437500000002
-0.0001354217529296875
-0.00012893676757812502
-0.0001262664794921875
-0.0001255035400390625
-0.0001224517822265625
-0.00011520385742187501
-0.0001087188720703125
-0.00010643005371093751
-0.000101470947265625
-9.498596191406251e-05
-8.6212158203125e-05
-8.04901123046875e-05
-7.74383544921875e-05
-7.896423339843751e-05
-8.23974609375e-05
-8.12530517578125e-05
-7.9345703125e-05
-7.781982421875001e-05
-8.163452148437501e-05
-8.96453857421875e-05
-9.3841552734375e-05
-9.26971435546875e-05
-9.34600830078125e-05
-9.72747802734375e-05
-9.95635986328125e-05
-9.689331054687501e-05
-9.803771972656251e-05
-0.00010261535644531251
-0.000106048583984375
-0.00010185241699218751
-9.3841552734375e-05
-9.26971435546875e-05
-9.57489013671875e-05
-9.57489013671875e-05
-8.544921875000001e-05
-7.171630859375e-05
-6.9427490234375e-05
-7.400512695312501e-05
-7.705688476562501e-05
-6.866455078125e-05
-5.14984130859375e-05
-3.8909912109375004e-05
-3.7384033203125e-05
-4.730224609375e-05
-6.866455078125e-05
-9.689331054687501e-05
-0.00012054443359375
-0.0001247406005859375
-0.0001125335693359375
-0.00010452270507812501
-0.0001117706298828125
-0.00012512207031250002
-0.0001300811767578125
-0.00011978149414062501
-0.00010261535644531251
-8.850097656250001e-05
-8.850097656250001e-05
-0.00010185241699218751
-0.0001079559326171875
-7.13348388671875e-05
5.1116943359375e-05
0.0003021240234375
0.0006855010986328126
0.0011459350585937501
0.0014923095703125002
0.0014087677001953125
0.0007102966308593751
-0.00036544799804687504
-0.0012821197509765626
-0.001644134521484375
-0.0014797210693359376
-0.001097869873046875
-0.0007503509521484376
-0.0004955291748046875
-0.0003124237060546875
-0.000193023681640625
-0.0001163482666015625
-5.9509277343750005e-05
-2.25067138671875e-05
-7.62939453125e-07
1.373291015625e-05
2.3651123046875e-05
3.08990478515625e-05
3.8909912109375004e-05
4.8828125e-05
5.5694580078125005e-05
5.68389892578125e-05
5.7601928710937505e-05
6.52313232421875e-05
7.66754150390625e-05
8.6212158203125e-05
9.040832519531251e-05
9.34600830078125e-05
0.00010070800781250001
0.0001125335693359375
0.000122833251953125
0.0001331329345703125
0.000148773193359375
0.00016365051269531252
0.00017280578613281252
0.000177764892578125
0.00018997192382812502
0.00021209716796875
0.0002349853515625
0.00024566650390625
0.00024642944335937503
0.00024566650390625
0.0002452850341796875
0.0002429962158203125
0.000231170654296875
0.00021324157714843752
0.00019760131835937502
0.000183868408203125
0.00017242431640625
0.0001529693603515625
0.00012664794921875
9.57489013671875e-05
6.29425048828125e-05
2.1362304687500002e-05
-2.5939941406250003e-05
-6.7138671875e-05
-8.96453857421875e-05
-0.0001003265380859375
-0.0001125335693359375
-0.000133514404296875
-0.0001567840576171875
-0.00017089843750000002
-0.00017318725585937502
-0.0001678466796875
-0.00016136169433593752
-0.00015754699707031252
-0.00015754699707031252
-0.0001583099365234375
-0.0001590728759765625
-0.00015411376953125002
-0.0001445770263671875
-0.0001331329345703125
-0.00012664794921875
-0.0001277923583984375
-0.00012893676757812502
-0.000124359130859375
-0.00010948181152343751
-9.307861328125001e-05
-8.697509765625e-05
-8.81195068359375e-05
-9.765625e-05
-0.000106048583984375
-0.0001087188720703125
-0.0001079559326171875
-0.0001110076904296875
-0.00011711120605468751
-0.00011901855468750001
-0.0001117706298828125
-0.0001049041748046875
-0.00010948181152343751
-0.00012092590332031251
-0.0001277923583984375
-0.00012512207031250002
-0.00011787414550781251
-0.0001117706298828125
-0.000106048583984375
-0.0001068115234375
-0.0001125335693359375
-0.0001129150390625
-0.00010185241699218751
-8.697509765625e-05
-8.3160400390625e-05
-8.697509765625e-05
-8.697509765625e-05
-7.514953613281251e-05
-6.4849853515625e-05
-6.9427490234375e-05
-9.040832519531251e-05
-0.0001155853271484375
-0.000135040283203125
-0.00013885498046875
-0.0001331329345703125
-0.0001247406005859375
-0.000125885009765625
-0.00013084411621093752
-0.00013580322265625
-0.00013847351074218752
-0.000139617919921875
-0.0001312255859375
-0.0001163482666015625
-0.000109100341796875
-0.0001125335693359375
-9.689331054687501e-05
-1.86920166015625e-05
0.0001735687255859375
0.0005043029785156251
0.000951385498046875
0.001377105712890625
0.0014820098876953125
0.000994110107421875
-2.6702880859375003e-06
-0.0010303497314453126
-0.0015995025634765625
-0.0015941619873046876
-0.00125885009765625
-0.0008911132812500001
-0.0006072998046875001
-0.0003948211669921875
-0.00023994445800781252
-0.000141143798828125
-8.0108642578125e-05
-4.76837158203125e-05
-3.01361083984375e-05
-1.2969970703125001e-05
5.3405761718750005e-06
2.0217895507812503e-05
2.9754638671875003e-05
3.62396240234375e-05
4.119873046875e-05
4.5013427734375e-05
4.9591064453125e-05
5.645751953125e-05
6.3323974609375e-05
6.90460205078125e-05
7.36236572265625e-05
8.0108642578125e-05
8.96453857421875e-05
0.00010375976562500001
0.00011329650878906251
0.00011978149414062501
0.0001255035400390625
0.0001369476318359375
0.00015220642089843752
0.00016899108886718752
0.000183868408203125
0.00019760131835937502
0.0002105712890625
0.00022659301757812502
0.00023803710937500002
0.000240325927734375
0.000232696533203125
0.00022048950195312502
0.0002086639404296875
0.0001983642578125
0.0001873016357421875
0.00017089843750000002
0.0001491546630859375
0.0001262664794921875
0.00010643005371093751
8.43048095703125e-05
5.2261352539062504e-05
1.33514404296875e-05
-2.5939941406250003e-05
-5.8746337890625e-05
-8.23974609375e-05
-0.00010070800781250001
-0.0001155853271484375
-0.000130462646484375
-0.00014610290527343752
-0.0001621246337890625
-0.000171661376953125
-0.00017127990722656252
-0.00016517639160156252
-0.00016136169433593752
-0.0001605987548828125
-0.0001621246337890625
-0.0001567840576171875
-0.00014648437500000002
-0.00013580322265625
-0.0001316070556640625
-0.00012893676757812502
-0.00012702941894531252
-0.0001239776611328125
-0.00011787414550781251
-0.00010948181152343751
-0.00010452270507812501
-0.0001041412353515625
-0.000102996826171875
-9.994506835937501e-05
-9.65118408203125e-05
-9.65118408203125e-05
-9.765625e-05
-9.689331054687501e-05
-9.95635986328125e-05
-0.00010833740234375001
-0.0001186370849609375
-0.0001224517822265625
-0.00011711120605468751
-0.00011024475097656251
-0.000106048583984375
-0.00010566711425781251
-0.0001079559326171875
-0.0001110076904296875
-0.00011405944824218751
-0.00011329650878906251
-0.0001068115234375
-9.19342041015625e-05
-7.62939453125e-05
-7.05718994140625e-05
-7.705688476562501e-05
-8.354187011718751e-05
-7.62939453125e-05
-6.0272216796875e-05
-5.30242919921875e-05
-6.3323974609375e-05
-8.659362792968751e-05
-0.0001087188720703125
-0.0001224517822265625
-0.00012702941894531252
-0.0001255035400390625
-0.00012321472167968752
-0.000121307373046875
-0.000121307373046875
-0.00012092590332031251
-0.00012054443359375
-0.000122833251953125
-0.0001201629638671875
-0.00011024475097656251
-0.00010261535644531251
-9.803771972656251e-05
-8.163452148437501e-05
-6.866455078125e-06
0.00018844604492187502
0.0005352020263671875
0.000991058349609375
0.0014007568359375002
0.0014854431152343751
0.0009990692138671876
1.6021728515625e-05
-0.001019287109375
-0.001617431640625
-0.0016239166259765627
-0.0012638092041015625
-0.0008548736572265626
-0.000545501708984375
-0.00033416748046875003
-0.000193023681640625
-0.00011024475097656251
-6.103515625e-05
-2.93731689453125e-05
-7.2479248046875005e-06
8.0108642578125e-06
1.9073486328125e-05
2.8228759765625e-05
3.7384033203125e-05
4.6539306640625004e-05
5.0354003906250004e-05
4.92095947265625e-05
4.8065185546875005e-05
5.07354736328125e-05
5.6076049804687504e-05
6.866455078125e-05
8.392333984375e-05
9.422302246093751e-05
9.8419189453125e-05
0.00010223388671875
0.00011329650878906251
0.0001293182373046875
0.0001476287841796875
0.00016021728515625
0.000168609619140625
0.000176239013671875
0.00018768310546875
0.00020561218261718752
0.00022277832031250002
0.00023384094238281252
0.00023231506347656252
0.000225067138671875
0.00022087097167968752
0.00022087097167968752
0.000222015380859375
0.00021286010742187502
0.000193023681640625
0.00017089843750000002
0.000156402587890625
0.0001430511474609375
0.000122833251953125
9.002685546875e-05
5.3787231445312505e-05
1.9454956054687502e-05
-7.2479248046875005e-06
-3.35693359375e-05
-5.9890747070312504e-05
-8.7738037109375e-05
-0.0001117706298828125
-0.000127410888671875
-0.0001331329345703125
-0.000138092041015625
-0.0001445770263671875
-0.00014991760253906252
-0.00014839172363281252
-0.00014228820800781252
-0.0001399993896484375
-0.0001445770263671875
-0.00014648437500000002
-0.000141143798828125
-0.0001277923583984375
-0.00011749267578125
-0.0001117706298828125
-0.0001087188720703125
-0.000106048583984375
-0.0001049041748046875
-0.00010643005371093751
-0.0001041412353515625
-9.34600830078125e-05
-7.9345703125e-05
-6.98089599609375e-05
-7.171630859375e-05
-8.04901123046875e-05
-9.0789794921875e-05
-9.613037109375001e-05
-9.5367431640625e-05
-9.34600830078125e-05
-9.117126464843751e-05
-9.040832519531251e-05
-9.117126464843751e-05
-9.422302246093751e-05
-0.00010070800781250001
-0.00010566711425781251
-0.0001087188720703125
-0.00010452270507812501
-9.498596191406251e-05
-8.23974609375e-05
-7.591247558593751e-05
-7.781982421875001e-05
-7.9345703125e-05
-7.514953613281251e-05
-6.4849853515625e-05
-5.68389892578125e-05
-5.8746337890625e-05
-7.05718994140625e-05
-9.1552734375e-05
-0.000113677978515625
-0.0001277923583984375
-0.000133514404296875
-0.00013427734375
-0.000131988525390625
-0.000125885009765625
-0.0001201629638671875
-0.000122833251953125
-0.000130462646484375
-0.00013465881347656252
-0.0001262664794921875
-0.00011444091796875
-0.00011329650878906251
-0.0001110076904296875
-7.36236572265625e-05
4.6157836914062505e-05
0.000295257568359375
0.0006797790527343751
0.0011402130126953126
0.00147552490234375
0.001372528076171875
0.000661468505859375
-0.000415802001953125
-0.001326751708984375
-0.00167694091796875
-0.00149383544921875
-0.0010894775390625
-0.000726318359375
-0.00046539306640625
-0.0002803802490234375
-0.00015983581542968752
-9.040832519531251e-05
-5.1879882812500005e-05
-3.2806396484375e-05
-2.17437744140625e-05
-5.7220458984375e-06
1.5640258789062502e-05
3.7384033203125e-05
5.1879882812500005e-05
5.3787231445312505e-05
4.9591064453125e-05
4.730224609375e-05
5.340576171875e-05
6.256103515625001e-05
6.637573242187501e-05
6.7901611328125e-05
7.476806640625e-05
8.50677490234375e-05
9.57489013671875e-05
0.00010452270507812501
0.0001155853271484375
0.000128173828125
0.0001445770263671875
0.000162506103515625
0.000179290771484375
0.0001895904541015625
0.0001983642578125
0.0002079010009765625
0.0002216339111328125
0.0002330780029296875
0.0002410888671875
0.00024642944335937503
0.000249481201171875
0.000244903564453125
0.00023040771484375002
0.00021476745605468752
0.00020332336425781252
0.0001926422119140625
0.00017547607421875
0.000145721435546875
0.000113677978515625
8.163452148437501e-05
4.76837158203125e-05
9.5367431640625e-06
-3.0517578125e-05
-6.40869140625e-05
-9.002685546875e-05
-0.00010948181152343751
-0.000128173828125
-0.00014610290527343752
-0.00015716552734375
-0.00016326904296875002
-0.00016365051269531252
-0.000164031982421875
-0.0001628875732421875
-0.00016174316406250002
-0.00016365051269531252
-0.00016632080078125
-0.0001659393310546875
-0.0001583099365234375
-0.0001468658447265625
-0.0001361846923828125
-0.0001239776611328125
-0.0001125335693359375
-0.0001079559326171875
-0.0001117706298828125
-0.0001148223876953125
-0.00011024475097656251
-0.00010223388671875
-9.72747802734375e-05
-9.8419189453125e-05
-0.0001003265380859375
-0.00010070800781250001
-0.00010375976562500001
-0.00010757446289062501
-0.00010528564453125
-9.95635986328125e-05
-9.422302246093751e-05
-9.1552734375e-05
-9.19342041015625e-05
-9.880065917968751e-05
-0.00011024475097656251
-0.00011978149414062501
-0.0001148223876953125
-9.765625e-05
-7.8582763671875e-05
-7.28607177734375e-05
-7.74383544921875e-05
-8.468627929687501e-05
-7.972717285156251e-05
-6.9427490234375e-05
-6.637573242187501e-05
-8.087158203125001e-05
-0.00010261535644531251
-0.000118255615234375
-0.00012702941894531252
-0.00013656616210937502
-0.00014495849609375
-0.0001445770263671875
-0.0001338958740234375
-0.00012664794921875
-0.000125885009765625
-0.000130462646484375
-0.00012893676757812502
-0.00012092590332031251
-0.00011596679687500001
-0.0001155853271484375
-0.0001033782958984375
-4.730224609375e-05
9.57489013671875e-05
0.00037078857421875
0.0007862091064453126
0.0012531280517578125
0.0015209197998046877
0.0012634277343750002
0.000415802001953125
-0.0006626129150390626
-0.0014350891113281252
-0.0016342163085937501
-0.0013946533203125
-0.001024627685546875
-0.00071258544921875
-0.0004795074462890625
-0.00030822753906250004
-0.0001953125
-0.000116729736328125
-6.14166259765625e-05
-2.74658203125e-05
-7.2479248046875005e-06
1.0681152343750001e-05
2.44140625e-05
2.7084350585937502e-05
2.288818359375e-05
2.44140625e-05
3.77655029296875e-05
5.2261352539062504e-05
5.7983398437500004e-05
5.645751953125e-05
6.0272216796875e-05
7.324218750000001e-05
8.6212158203125e-05
9.422302246093751e-05
9.46044921875e-05
9.803771972656251e-05
0.0001079559326171875
0.00012168884277343751
0.00013465881347656252
0.000147247314453125
0.0001605987548828125
0.0001796722412109375
0.000199127197265625
0.0002117156982421875
0.000217437744140625
0.000223541259765625
0.0002292633056640625
0.000231170654296875
0.00022621154785156252
0.0002178192138671875
0.0002105712890625
0.0002063751220703125
0.0001983642578125
0.000179290771484375
0.00015182495117187502
0.000121307373046875
9.0789794921875e-05
5.83648681640625e-05
2.25067138671875e-05
-1.33514404296875e-05
-5.07354736328125e-05
-8.468627929687501e-05
-0.000110626220703125
-0.00012664794921875
-0.00013885498046875
-0.0001529693603515625
-0.0001678466796875
-0.0001773834228515625
-0.0001811981201171875
-0.00018463134765625002
-0.00018806457519531252
-0.00018653869628906252
-0.0001758575439453125
-0.000162506103515625
-0.0001529693603515625
-0.0001491546630859375
-0.000148773193359375
-0.0001476287841796875
-0.0001438140869140625
-0.0001369476318359375
-0.00012893676757812502
-0.0001220703125
-0.00011787414550781251
-0.0001148223876953125
-0.000110626220703125
-0.00010757446289062501
-0.00010833740234375001
-0.0001129150390625
-0.0001155853271484375
-0.0001148223876953125
-0.00011329650878906251
-0.0001125335693359375
-0.0001125335693359375
-0.00011215209960937501
-0.00010986328125
-0.000109100341796875
-0.00011215209960937501
-0.00011749267578125
-0.000124359130859375
-0.00012969970703125
-0.000131988525390625
-0.00012664794921875
-0.0001110076904296875
-8.81195068359375e-05
-7.82012939453125e-05
-8.468627929687501e-05
-9.26971435546875e-05
-8.277893066406251e-05
-6.637573242187501e-05
-6.3323974609375e-05
-8.277893066406251e-05
-0.00011138916015625001
-0.00013084411621093752
-0.0001415252685546875
-0.00014801025390625002
-0.00014495849609375
-0.0001361846923828125
-0.00012969970703125
-0.000133514404296875
-0.00013847351074218752
-0.0001377105712890625
-0.000128173828125
-0.000121307373046875
-0.0001239776611328125
-0.000124359130859375
-0.0001033782958984375
-3.54766845703125e-05
0.00011711120605468751
0.00040359497070312504
0.0008171081542968751
0.001262664794921875
0.0014892578125000001
0.0011913299560546875
0.000316619873046875
-0.000762176513671875
-0.0015178680419921876
-0.001680755615234375
-0.0013980865478515625
-0.0009914398193359376
-0.0006603240966796876
-0.00042076110839843754
-0.0002506256103515625
-0.000147247314453125
-8.88824462890625e-05
-5.4168701171875004e-05
-2.8991699218750002e-05
-6.484985351562501e-06
1.33514404296875e-05
2.93731689453125e-05
4.119873046875e-05
4.9591064453125e-05
5.07354736328125e-05
4.76837158203125e-05
4.4250488281250005e-05
4.9591064453125e-05
6.1798095703125e-05
7.476806640625e-05
8.163452148437501e-05
8.3160400390625e-05
8.163452148437501e-05
8.697509765625e-05
9.880065917968751e-05
0.00011444091796875
0.0001316070556640625
0.00014419555664062502
0.0001567840576171875
0.000170135498046875
0.0001873016357421875
0.0002025604248046875
0.00021286010742187502
0.0002178192138671875
0.00022125244140625
0.0002254486083984375
0.0002288818359375
0.0002231597900390625
0.0002079010009765625
0.00019226074218750002
0.00018081665039062502
0.00017242431640625
0.00016326904296875002
0.00014991760253906252
0.000128173828125
9.880065917968751e-05
6.37054443359375e-05
2.74658203125e-05
-8.392333984375e-06
-4.0817260742187504e-05
-6.67572021484375e-05
-8.12530517578125e-05
-9.498596191406251e-05
-0.00011596679687500001
-0.000138092041015625
-0.0001506805419921875
-0.00015029907226562502
-0.0001468658447265625
-0.000147247314453125
-0.00015029907226562502
-0.00015182495117187502
-0.00014610290527343752
-0.000138092041015625
-0.000130462646484375
-0.000125885009765625
-0.000122833251953125
-0.00011596679687500001
-0.00010757446289062501
-0.0001003265380859375
-9.765625e-05
-9.8419189453125e-05
-9.613037109375001e-05
-8.96453857421875e-05
-7.9345703125e-05
-7.13348388671875e-05
-7.13348388671875e-05
-7.591247558593751e-05
-8.23974609375e-05
-8.6212158203125e-05
-8.81195068359375e-05
-9.19342041015625e-05
-9.918212890625e-05
-0.00010375976562500001
-0.00010070800781250001
-9.231567382812501e-05
-8.850097656250001e-05
-8.926391601562501e-05
-9.498596191406251e-05
-9.95635986328125e-05
-0.00010261535644531251
-0.00010185241699218751
-9.3841552734375e-05
-8.354187011718751e-05
-7.705688476562501e-05
-7.514953613281251e-05
-7.171630859375e-05
-6.103515625e-05
-4.730224609375e-05
-4.1961669921875e-05
-4.8446655273437504e-05
-6.29425048828125e-05
-7.972717285156251e-05
-9.689331054687501e-05
-0.0001110076904296875
-0.00011787414550781251
-0.00011901855468750001
-0.00011787414550781251
-0.000118255615234375
-0.0001220703125
-0.0001224517822265625
-0.000118255615234375
-0.00011024475097656251
-0.0001033782958984375
-0.0001003265380859375
-0.0001049041748046875
-0.00010223388671875
-6.52313232421875e-05
5.3787231445312505e-05
0.000302886962890625
0.0006927490234375001
0.0011508941650390625
0.0014797210693359376
0.0013763427734375
0.0006771087646484375
-0.00038833618164062504
-0.001300811767578125
-0.0016689300537109375
-0.0014995574951171876
-0.001091766357421875
-0.0007167816162109375
-0.00045509338378906254
-0.00028228759765625
-0.00017089843750000002
-9.8419189453125e-05
-4.730224609375e-05
-1.9454956054687502e-05
-7.2479248046875005e-06
4.1961669921875e-06
1.9073486328125e-05
3.204345703125e-05
3.92913818359375e-05
4.00543212890625e-05
4.2343139648437505e-05
4.92095947265625e-05
5.9890747070312504e-05
6.866455078125e-05
7.0953369140625e-05
7.05718994140625e-05
7.43865966796875e-05
8.20159912109375e-05
9.117126464843751e-05
0.00010070800781250001
0.0001117706298828125
0.0001239776611328125
0.00013465881347656252
0.0001453399658203125
0.00015945434570312502
0.0001735687255859375
0.0001895904541015625
0.00020370483398437502
0.00021514892578125002
0.0002216339111328125
0.00022277832031250002
0.00022048950195312502
0.0002193450927734375
0.00022125244140625
0.00022239685058593752
0.00020942687988281252
0.0001834869384765625
0.0001544952392578125
0.0001323699951171875
0.000116729736328125
9.72747802734375e-05
6.98089599609375e-05
3.92913818359375e-05
1.1444091796875e-05
-1.4877319335937501e-05
-4.53948974609375e-05
-8.087158203125001e-05
-0.000106048583984375
-0.00011520385742187501
-0.00011405944824218751
-0.0001194000244140625
-0.000133514404296875
-0.00014801025390625002
-0.0001552581787109375
-0.00015869140625
-0.00015945434570312502
-0.0001567840576171875
-0.00015106201171875
-0.00014495849609375
-0.0001399993896484375
-0.0001331329345703125
-0.00011901855468750001
-0.00010566711425781251
-9.918212890625e-05
-9.95635986328125e-05
-9.918212890625e-05
-9.46044921875e-05
-8.850097656250001e-05
-8.468627929687501e-05
-8.12530517578125e-05
-7.74383544921875e-05
-7.591247558593751e-05
-7.9345703125e-05
-8.6212158203125e-05
-9.422302246093751e-05
-0.0001010894775390625
-0.00010375976562500001
-0.0001003265380859375
-9.57489013671875e-05
-9.994506835937501e-05
-0.00011024475097656251
-0.00011901855468750001
-0.0001163482666015625
-0.0001071929931640625
-0.000102996826171875
-0.000106048583984375
-0.000109100341796875
-0.00010566711425781251
-0.00010261535644531251
-0.00010223388671875
-9.95635986328125e-05
-9.19342041015625e-05
-7.9345703125e-05
-7.2479248046875e-05
-6.67572021484375e-05
-6.06536865234375e-05
-4.8065185546875005e-05
-4.0817260742187504e-05
-4.15802001953125e-05
-5.5694580078125005e-05
-7.591247558593751e-05
-9.880065917968751e-05
-0.000113677978515625
-0.00011444091796875
-0.00010757446289062501
-0.00010833740234375001
-0.0001163482666015625
-0.0001224517822265625
-0.000116729736328125
-0.0001079559326171875
-0.0001010894775390625
-9.65118408203125e-05
-9.3841552734375e-05
-9.65118408203125e-05
-9.57489013671875e-05
-6.4849853515625e-05
4.3487548828125e-05
0.0002765655517578125
0.0006519317626953125
0.0011199951171875
0.0014923095703125002
0.0014484405517578127
0.0007877349853515625
-0.000287628173828125
-0.0012462615966796877
-0.0016609191894531251
-0.0015155792236328125
-0.001116943359375
-0.0007480621337890626
-0.0004901885986328125
-0.00031280517578125
-0.0001911163330078125
-0.00010948181152343751
-5.4931640625e-05
-2.3269653320312502e-05
-7.2479248046875005e-06
7.2479248046875005e-06
2.0217895507812503e-05
2.5177001953125002e-05
2.93731689453125e-05
3.54766845703125e-05
4.6539306640625004e-05
5.4168701171875004e-05
5.83648681640625e-05
5.8746337890625e-05
6.14166259765625e-05
6.90460205078125e-05
8.0108642578125e-05
9.040832519531251e-05
9.918212890625e-05
0.000109100341796875
0.00012092590332031251
0.0001277923583984375
0.0001338958740234375
0.00014610290527343752
0.0001644134521484375
0.00018272399902343752
0.00019378662109375002
0.00019989013671875002
0.00020904541015625002
0.0002231597900390625
0.0002346038818359375
0.00023612976074218752
0.000231170654296875
0.00022125244140625
0.00021209716796875
0.0001983642578125
0.00018310546875
0.00017509460449218752
0.00017318725585937502
0.00016632080078125
0.00014038085937500002
9.880065917968751e-05
5.53131103515625e-05
1.9454956054687502e-05
-9.155273437500001e-06
-3.62396240234375e-05
-6.67572021484375e-05
-9.689331054687501e-05
-0.0001220703125
-0.0001373291015625
-0.000145721435546875
-0.0001506805419921875
-0.0001567840576171875
-0.00016136169433593752
-0.000160980224609375
-0.0001567840576171875
-0.0001590728759765625
-0.000164031982421875
-0.00016365051269531252
-0.0001495361328125
-0.00013275146484375002
-0.0001239776611328125
-0.000124359130859375
-0.000121307373046875
-0.000116729736328125
-0.00010986328125
-0.000101470947265625
-9.231567382812501e-05
-8.735656738281251e-05
-8.81195068359375e-05
-9.1552734375e-05
-9.002685546875e-05
-8.81195068359375e-05
-9.0789794921875e-05
-0.00010185241699218751
-0.00010986328125
-0.00010833740234375001
-0.000106048583984375
-0.0001110076904296875
-0.0001194000244140625
-0.0001201629638671875
-0.00011215209960937501
-0.00010833740234375001
-0.00011024475097656251
-0.00011138916015625001
-0.00010757446289062501
-0.00010070800781250001
-9.8419189453125e-05
-0.00010070800781250001
-0.0001033782958984375
-0.00010261535644531251
-9.5367431640625e-05
-8.88824462890625e-05
-8.659362792968751e-05
-8.659362792968751e-05
-8.12530517578125e-05
-6.59942626953125e-05
-5.07354736328125e-05
-4.8828125e-05
-6.29425048828125e-05
-8.3160400390625e-05
-9.918212890625e-05
-0.00010757446289062501
-0.000113677978515625
-0.0001186370849609375
-0.00012321472167968752
-0.00012092590332031251
-0.00011520385742187501
-0.00010833740234375001
-0.0001117706298828125
-0.00011711120605468751
-0.00011901855468750001
-0.00011329650878906251
-0.00010833740234375001
-9.994506835937501e-05
-7.171630859375e-05
1.220703125e-05
0.00020751953125000002
0.0005504608154296875
0.0010124206542968751
0.0014270782470703126
0.0014774322509765625
0.0009212493896484375
-0.00010070800781250001
-0.0010894775390625
-0.00159454345703125
-0.0015468597412109375
-0.0012069702148437501
-0.0008518218994140625
-0.000579071044921875
-0.0003757476806640625
-0.0002330780029296875
-0.000138092041015625
-7.13348388671875e-05
-3.16619873046875e-05
-1.52587890625e-05
-6.484985351562501e-06
9.918212890625e-06
2.7847290039062503e-05
3.8528442382812505e-05
4.2343139648437505e-05
4.1961669921875e-05
4.53948974609375e-05
5.2642822265625e-05
5.8746337890625e-05
6.561279296875e-05
7.36236572265625e-05
8.23974609375e-05
8.6212158203125e-05
8.50677490234375e-05
8.850097656250001e-05
0.00010223388671875
0.000122833251953125
0.00013847351074218752
0.00014801025390625002
0.00015411376953125002
0.0001644134521484375
0.0001781463623046875
0.0001926422119140625
0.0002048492431640625
0.00021667480468750002
0.000225067138671875
0.00023002624511718752
0.00023002624511718752
0.0002239227294921875
0.000214385986328125
0.00020141601562500002
0.0001834869384765625
0.00016555786132812502
0.000147247314453125
0.000128173828125
0.0001068115234375
8.20159912109375e-05
5.4168701171875004e-05
2.0599365234375e-05
-1.2969970703125001e-05
-4.8065185546875005e-05
-7.74383544921875e-05
-0.000101470947265625
-0.000118255615234375
-0.00012969970703125
-0.0001392364501953125
-0.00014839172363281252
-0.00015602111816406252
-0.0001605987548828125
-0.000160980224609375
-0.00015869140625
-0.00015792846679687502
-0.00015563964843750002
-0.0001495361328125
-0.0001399993896484375
-0.000130462646484375
-0.0001262664794921875
-0.000124359130859375
-0.0001194000244140625
-0.00010986328125
-0.00010185241699218751
-9.918212890625e-05
-9.918212890625e-05
-9.8419189453125e-05
-9.422302246093751e-05
-9.117126464843751e-05
-9.19342041015625e-05
-9.422302246093751e-05
-9.689331054687501e-05
-9.8419189453125e-05
-9.880065917968751e-05
-9.72747802734375e-05
-9.498596191406251e-05
-9.46044921875e-05
-9.8419189453125e-05
-0.000106048583984375
-0.00011138916015625001
-0.00011329650878906251
-0.00011444091796875
-0.00011596679687500001
-0.0001194000244140625
-0.00012168884277343751
-0.00012168884277343751
-0.00011405944824218751
-0.00010528564453125
-0.000101470947265625
-9.918212890625e-05
-9.613037109375001e-05
-8.926391601562501e-05
-8.354187011718751e-05
-7.781982421875001e-05
-7.0953369140625e-05
-6.7138671875e-05
-6.4849853515625e-05
-5.7220458984375e-05
-4.4631958007812504e-05
-3.4332275390625e-05
-4.0817260742187504e-05
-6.103515625e-05
-8.20159912109375e-05
-9.880065917968751e-05
-0.00011215209960937501
-0.000121307373046875
-0.00012168884277343751
-0.0001155853271484375
-0.00011024475097656251
-0.00011138916015625001
-0.0001117706298828125
-0.0001087188720703125
-0.00010070800781250001
-9.3841552734375e-05
-9.803771972656251e-05
-0.000101470947265625
-7.9345703125e-05
-1.1444091796875002e-06
0.00017127990722656252
0.00047149658203125003
0.0008941650390625
0.0013309478759765626
0.001517486572265625
0.0011554718017578126
0.0002384185791015625
-0.0008300781250000001
-0.0015274047851562501
-0.0016296386718750002
-0.0013164520263671876
-0.00091552734375
-0.0006015777587890626
-0.00038185119628906253
-0.00023002624511718752
-0.00013427734375
-7.5531005859375e-05
-4.0435791015625005e-05
-2.0217895507812503e-05
-3.814697265625e-06
1.2969970703125001e-05
2.5939941406250003e-05
3.5858154296875e-05
4.53948974609375e-05
5.68389892578125e-05
6.37054443359375e-05
5.8746337890625e-05
5.1116943359375e-05
4.9972534179687505e-05
6.14166259765625e-05
7.476806640625e-05
8.163452148437501e-05
8.3160400390625e-05
8.88824462890625e-05
0.00010261535644531251
0.00012054443359375
0.0001312255859375
0.0001354217529296875
0.0001407623291015625
0.00015792846679687502
0.0001800537109375
0.0001987457275390625
0.0002044677734375
0.0002048492431640625
0.0002105712890625
0.00022239685058593752
0.0002216339111328125
0.000202178955078125
0.00017700195312500002
0.000164794921875
0.0001697540283203125
0.00017700195312500002
0.0001667022705078125
0.000141143798828125
0.00011215209960937501
8.81195068359375e-05
6.37054443359375e-05
3.3187866210937504e-05
-1.1444091796875002e-06
-3.5095214843750004e-05
-6.1798095703125e-05
-8.04901123046875e-05
-9.5367431640625e-05
-0.000113677978515625
-0.0001331329345703125
-0.00014839172363281252
-0.0001514434814453125
-0.0001445770263671875
-0.00013580322265625
-0.00012664794921875
-0.000121307373046875
-0.00012092590332031251
-0.0001201629638671875
-0.00011787414550781251
-0.00011024475097656251
-9.918212890625e-05
-9.3841552734375e-05
-9.689331054687501e-05
-0.00010223388671875
-0.00010223388671875
-9.422302246093751e-05
-8.81195068359375e-05
-8.850097656250001e-05
-9.613037109375001e-05
-9.8419189453125e-05
-8.96453857421875e-05
-7.9345703125e-05
-7.896423339843751e-05
-9.0789794921875e-05
-0.000106048583984375
-0.000113677978515625
-0.00010566711425781251
-8.735656738281251e-05
-7.400512695312501e-05
-7.476806640625e-05
-8.7738037109375e-05
-0.000101470947265625
-0.00011215209960937501
-0.0001129150390625
-0.00010528564453125
-9.765625e-05
-9.8419189453125e-05
-0.00010757446289062501
-0.0001148223876953125
-0.00011520385742187501
-0.00011444091796875
-0.00011711120605468751
-0.00011901855468750001
-0.0001110076904296875
-9.307861328125001e-05
-7.019042968750001e-05
-4.8828125e-05
-3.77655029296875e-05
-3.77655029296875e-05
-3.8528442382812505e-05
-2.8991699218750002e-05
-1.8310546875000003e-05
-2.3651123046875e-05
-4.8065185546875005e-05
-7.62939453125e-05
-8.96453857421875e-05
-9.34600830078125e-05
-9.72747802734375e-05
-0.0001049041748046875
-0.00010948181152343751
-0.00010986328125
-0.0001068115234375
-0.0001068115234375
-0.0001068115234375
-0.0001033782958984375
-9.65118408203125e-05
-9.46044921875e-05
-9.498596191406251e-05
-7.591247558593751e-05
-3.814697265625e-07
0.00018424987792968752
0.00051422119140625
0.0009670257568359375
0.0014057159423828125
0.0015445709228515626
0.0011116027832031251
0.0001514434814453125
-0.0009033203125
-0.001548004150390625
-0.0015995025634765625
-0.0012622833251953126
-0.000858306884765625
-0.0005550384521484375
-0.0003498077392578125
-0.00020751953125000002
-0.00011711120605468751
-6.7901611328125e-05
-5.0354003906250004e-05
-4.0817260742187504e-05
-2.55584716796875e-05
-5.7220458984375e-06
6.103515625e-06
6.866455078125e-06
7.62939453125e-06
1.4495849609375001e-05
2.7084350585937502e-05
3.77655029296875e-05
4.8828125e-05
6.14166259765625e-05
6.90460205078125e-05
7.0953369140625e-05
6.3323974609375e-05
5.6076049804687504e-05
6.637573242187501e-05
8.659362792968751e-05
0.0001033782958984375
0.00010986328125
0.00011444091796875
0.000130462646484375
0.0001529693603515625
0.000171661376953125
0.000183868408203125
0.00019226074218750002
0.00019989013671875002
0.00020179748535156252
0.00020179748535156252
0.00020141601562500002
0.00019989013671875002
0.0001953125
0.00018615722656250002
0.00017127990722656252
0.00015754699707031252
0.00014839172363281252
0.0001407623291015625
0.00012054443359375
8.468627929687501e-05
3.77655029296875e-05
7.62939453125e-07
-2.74658203125e-05
-5.2642822265625e-05
-8.163452148437501e-05
-0.000106048583984375
-0.000118255615234375
-0.000116729736328125
-0.0001129150390625
-0.00012054443359375
-0.0001415252685546875
-0.00016136169433593752
-0.000170135498046875
-0.00016326904296875002
-0.0001495361328125
-0.000147247314453125
-0.0001621246337890625
-0.00018234252929687502
-0.00018424987792968752
-0.0001567840576171875
-0.00012092590332031251
-0.0001033782958984375
-0.0001049041748046875
-0.00011024475097656251
-0.000102996826171875
-8.6212158203125e-05
-7.05718994140625e-05
-6.75201416015625e-05
-7.400512695312501e-05
-8.20159912109375e-05
-8.58306884765625e-05
-8.58306884765625e-05
-8.23974609375e-05
-7.8582763671875e-05
-8.468627929687501e-05
-9.95635986328125e-05
-0.0001125335693359375
-0.000110626220703125
-9.994506835937501e-05
-9.19342041015625e-05
-9.1552734375e-05
-9.1552734375e-05
-9.002685546875e-05
-9.3841552734375e-05
-0.000102996826171875
-0.00010948181152343751
-0.0001033782958984375
-8.43048095703125e-05
-6.7138671875e-05
-6.06536865234375e-05
-6.256103515625001e-05
-6.37054443359375e-05
-5.3787231445312505e-05
-4.76837158203125e-05
-6.14166259765625e-05
-8.735656738281251e-05
-0.000106048583984375
-0.000106048583984375
-9.803771972656251e-05
-0.0001010894775390625
-0.00011711120605468751
-0.0001293182373046875
-0.000125885009765625
-0.0001129150390625
-0.000106048583984375
-0.00010948181152343751
-0.000109100341796875
-0.00010528564453125
-0.000106048583984375
-0.0001071929931640625
-8.0108642578125e-05
1.220703125e-05
0.00020751953125000002
0.0005340576171875
0.000975799560546875
0.0013862609863281251
0.0014549255371093751
0.000930023193359375
-6.52313232421875e-05
-0.0010467529296875001
-0.0015686035156250002
-0.0015453338623046876
-0.0012180328369140625
-0.0008544921875
-0.00055999755859375
-0.0003448486328125
-0.00021476745605468752
-0.0001468658447265625
-9.3841552734375e-05
-4.0435791015625005e-05
3.4332275390625e-06
2.288818359375e-05
1.79290771484375e-05
4.9591064453125e-06
7.62939453125e-06
2.86102294921875e-05
4.8828125e-05
5.4168701171875004e-05
4.76837158203125e-05
4.4250488281250005e-05
5.5694580078125005e-05
7.2479248046875e-05
8.277893066406251e-05
8.3160400390625e-05
8.392333984375e-05
8.81195068359375e-05
9.803771972656251e-05
0.0001117706298828125
0.0001300811767578125
0.00014610290527343752
0.0001583099365234375
0.00017089843750000002
0.0001873016357421875
0.000200653076171875
0.0002044677734375
0.000202178955078125
0.00021133422851562502
0.0002292633056640625
0.00023994445800781252
0.0002277374267578125
0.000202178955078125
0.00018043518066406252
0.00016746520996093752
0.000153350830078125
0.00013580322265625
0.0001224517822265625
0.000113677978515625
9.117126464843751e-05
4.9972534179687505e-05
3.4332275390625e-06
-2.86102294921875e-05
-4.9591064453125e-05
-7.2479248046875e-05
-9.994506835937501e-05
-0.00012168884277343751
-0.0001331329345703125
-0.00014610290527343752
-0.000164031982421875
-0.00017700195312500002
-0.00017509460449218752
-0.0001605987548828125
-0.000147247314453125
-0.0001434326171875
-0.00014839172363281252
-0.0001544952392578125
-0.0001544952392578125
-0.0001445770263671875
-0.000133514404296875
-0.0001262664794921875
-0.000128173828125
-0.00013656616210937502
-0.00013885498046875
-0.0001247406005859375
-9.72747802734375e-05
-7.781982421875001e-05
-7.66754150390625e-05
-8.43048095703125e-05
-8.88824462890625e-05
-8.58306884765625e-05
-8.659362792968751e-05
-9.46044921875e-05
-0.0001033782958984375
-0.00010452270507812501
-9.994506835937501e-05
-9.57489013671875e-05
-9.422302246093751e-05
-9.613037109375001e-05
-0.0001033782958984375
-0.00011215209960937501
-0.000116729736328125
-0.000110626220703125
-9.65118408203125e-05
-8.354187011718751e-05
-7.8582763671875e-05
-8.659362792968751e-05
-0.00010566711425781251
-0.00011787414550781251
-0.0001041412353515625
-6.52313232421875e-05
-3.1280517578125004e-05
-2.86102294921875e-05
-5.4168701171875004e-05
-8.392333984375e-05
-0.0001003265380859375
-0.0001068115234375
-0.000116729736328125
-0.0001331329345703125
-0.00014228820800781252
-0.0001293182373046875
-0.00010375976562500001
-8.96453857421875e-05
-9.72747802734375e-05
-0.00010375976562500001
-9.19342041015625e-05
-7.43865966796875e-05
-7.13348388671875e-05
-6.14166259765625e-05
1.18255615234375e-05
0.0002155303955078125
0.0005725860595703125
0.0010334014892578126
0.001421356201171875
0.001430511474609375
0.0008434295654296876
-0.000177764892578125
-0.001141357421875
-0.0016101837158203126
-0.0015270233154296875
-0.0011531829833984375
-0.0007728576660156251
-0.0004940032958984375
-0.00030670166015625
-0.00018844604492187502
-0.00011215209960937501
-5.645751953125e-05
-2.17437744140625e-05
-6.866455078125e-06
-1.52587890625e-06
1.1444091796875002e-06
5.3405761718750005e-06
1.2588500976562501e-05
2.7847290039062503e-05
4.6157836914062505e-05
5.83648681640625e-05
6.06536865234375e-05
5.91278076171875e-05
6.0272216796875e-05
6.40869140625e-05
6.637573242187501e-05
6.4849853515625e-05
6.561279296875e-05
7.705688476562501e-05
9.918212890625e-05
0.00012512207031250002
0.00014495849609375
0.0001491546630859375
0.0001445770263671875
0.00014648437500000002
0.0001590728759765625
0.00017662048339843752
0.000189208984375
0.00019378662109375002
0.00019378662109375002
0.0001983642578125
0.00020713806152343752
0.00020904541015625002
0.0001926422119140625
0.0001659393310546875
0.000147247314453125
0.00014038085937500002
0.0001369476318359375
0.00011787414550781251
8.392333984375e-05
4.8446655273437504e-05
2.17437744140625e-05
2.6702880859375003e-06
-1.2969970703125001e-05
-3.39508056640625e-05
-6.37054443359375e-05
-9.689331054687501e-05
-0.0001186370849609375
-0.000127410888671875
-0.00012702941894531252
-0.0001312255859375
-0.0001392364501953125
-0.0001476287841796875
-0.00015029907226562502
-0.000147247314453125
-0.000138092041015625
-0.000127410888671875
-0.0001224517822265625
-0.00012512207031250002
-0.0001255035400390625
-0.00011749267578125
-0.00010375976562500001
-9.46044921875e-05
-9.117126464843751e-05
-8.88824462890625e-05
-8.735656738281251e-05
-8.81195068359375e-05
-8.850097656250001e-05
-8.20159912109375e-05
-6.7138671875e-05
-5.53131103515625e-05
-5.53131103515625e-05
-6.59942626953125e-05
-7.2479248046875e-05
-7.209777832031251e-05
-7.5531005859375e-05
-9.1552734375e-05
-0.000109100341796875
-0.00010986328125
-9.57489013671875e-05
-8.88824462890625e-05
-9.689331054687501e-05
-0.00010757446289062501
-0.0001049041748046875
-9.46044921875e-05
-8.735656738281251e-05
-8.468627929687501e-05
-8.12530517578125e-05
-7.705688476562501e-05
-7.591247558593751e-05
-8.277893066406251e-05
-9.117126464843751e-05
-8.926391601562501e-05
-7.36236572265625e-05
-4.6157836914062505e-05
-2.63214111328125e-05
-2.8991699218750002e-05
-5.53131103515625e-05
-8.659362792968751e-05
-0.00010223388671875
-0.00010070800781250001
-9.3841552734375e-05
-9.46044921875e-05
-9.918212890625e-05
-0.0001010894775390625
-9.72747802734375e-05
-9.040832519531251e-05
-7.9345703125e-05
-6.90460205078125e-05
-6.7901611328125e-05
-7.36236572265625e-05
-6.14166259765625e-05
0.0
0.0001544952392578125
0.00043983459472656254
0.0008640289306640625
0.001322174072265625
0.00153961181640625
0.0012023925781250002
0.0002964019775390625
-0.000774383544921875
-0.0014820098876953125
-0.0015933990478515627
-0.0012832641601562501
-0.00087738037109375
-0.000560760498046875
-0.0003536224365234375
-0.0002216339111328125
-0.000138092041015625
-7.8582763671875e-05
-4.0435791015625005e-05
-2.288818359375e-05
-2.0599365234375e-05
-1.678466796875e-05
-1.9073486328125e-06
2.3651123046875e-05
4.730224609375e-05
5.3787231445312505e-05
4.730224609375e-05
4.4631958007812504e-05
4.9591064453125e-05
5.5694580078125005e-05
5.4168701171875004e-05
5.3787231445312505e-05
6.37054443359375e-05
7.82012939453125e-05
8.277893066406251e-05
8.20159912109375e-05
8.697509765625e-05
0.00010223388671875
0.00011978149414062501
0.000133514404296875
0.00014801025390625002
0.0001667022705078125
0.00018653869628906252
0.000199127197265625
0.00020713806152343752
0.00021324157714843752
0.0002162933349609375
0.00020904541015625002
0.00019416809082031252
0.0001811981201171875
0.00017280578613281252
0.00016632080078125
0.0001583099365234375
0.000142669677734375
0.0001239776611328125
0.0001033782958984375
8.04901123046875e-05
4.92095947265625e-05
1.41143798828125e-05
-1.678466796875e-05
-3.96728515625e-05
-6.37054443359375e-05
-9.498596191406251e-05
-0.00012359619140625
-0.00013427734375
-0.00013427734375
-0.0001392364501953125
-0.00015373229980468752
-0.000164794921875
-0.0001621246337890625
-0.000148773193359375
-0.0001373291015625
-0.00013427734375
-0.000141143798828125
-0.0001495361328125
-0.000148773193359375
-0.0001300811767578125
-0.0001049041748046875
-8.926391601562501e-05
-9.307861328125001e-05
-9.95635986328125e-05
-9.918212890625e-05
-8.659362792968751e-05
-7.400512695312501e-05
-7.05718994140625e-05
-8.23974609375e-05
-9.689331054687501e-05
-9.918212890625e-05
-8.926391601562501e-05
-8.04901123046875e-05
-8.697509765625e-05
-9.689331054687501e-05
-9.918212890625e-05
-9.613037109375001e-05
-0.00010070800781250001
-0.00011138916015625001
-0.000116729736328125
-0.000110626220703125
-9.880065917968751e-05
-8.96453857421875e-05
-8.7738037109375e-05
-8.88824462890625e-05
-8.6212158203125e-05
-8.277893066406251e-05
-8.163452148437501e-05
-8.0108642578125e-05
-7.43865966796875e-05
-6.3323974609375e-05
-5.3787231445312505e-05
-4.8065185546875005e-05
-4.38690185546875e-05
-4.00543212890625e-05
-4.57763671875e-05
-6.637573242187501e-05
-8.96453857421875e-05
-0.00010566711425781251
-0.0001117706298828125
-0.0001110076904296875
-0.0001110076904296875
-0.0001125335693359375
-0.0001125335693359375
-0.0001129150390625
-0.00010986328125
-0.00010261535644531251
-9.26971435546875e-05
-9.0789794921875e-05
-9.95635986328125e-05
-9.95635986328125e-05
-5.83648681640625e-05
6.37054443359375e-05
0.0003047943115234375
0.000684356689453125
0.0011508941650390625
0.0014854431152343751
0.0013584136962890626
0.0006229400634765625
-0.0004497528076171875
-0.00133056640625
-0.00166168212890625
-0.0014820098876953125
-0.0010898590087890625
-0.0007293701171875001
-0.00047035217285156254
-0.00029678344726562504
-0.00018310546875
-0.00010643005371093751
-5.7983398437500004e-05
-3.39508056640625e-05
-1.9454956054687502e-05
0.0
1.6021728515625e-05
2.3269653320312502e-05
2.3269653320312502e-05
2.4032592773437503e-05
3.47137451171875e-05
4.9591064453125e-05
6.37054443359375e-05
6.98089599609375e-05
6.90460205078125e-05
6.866455078125e-05
7.2479248046875e-05
7.781982421875001e-05
8.23974609375e-05
8.735656738281251e-05
9.72747802734375e-05
0.00010757446289062501
0.0001186370849609375
0.00013275146484375002
0.000152587890625
0.0001682281494140625
0.0001735687255859375
0.0001720428466796875
0.00017242431640625
0.0001819610595703125
0.00019760131835937502
0.00020332336425781252
0.0001926422119140625
0.00017089843750000002
0.000153350830078125
0.0001468658447265625
0.0001453399658203125
0.0001338958740234375
0.0001087188720703125
8.163452148437501e-05
6.06536865234375e-05
4.15802001953125e-05
1.64031982421875e-05
-2.0217895507812503e-05
-5.45501708984375e-05
-7.705688476562501e-05
-9.0789794921875e-05
-0.0001079559326171875
-0.0001293182373046875
-0.0001495361328125
-0.00015716552734375
-0.000156402587890625
-0.0001567840576171875
-0.00016365051269531252
-0.000168609619140625
-0.000164031982421875
-0.0001491546630859375
-0.000141143798828125
-0.00014419555664062502
-0.000148773193359375
-0.0001430511474609375
-0.000128173828125
-0.000113677978515625
-0.0001079559326171875
-0.0001087188720703125
-0.0001125335693359375
-0.00011215209960937501
-0.00010528564453125
-9.65118408203125e-05
-9.34600830078125e-05
-9.95635986328125e-05
-0.00010566711425781251
-0.00010375976562500001
-9.880065917968751e-05
-9.117126464843751e-05
-8.850097656250001e-05
-9.117126464843751e-05
-9.880065917968751e-05
-0.0001041412353515625
-0.00010566711425781251
-0.00010566711425781251
-0.00010566711425781251
-0.0001087188720703125
-0.000113677978515625
-0.00011749267578125
-0.00011711120605468751
-0.00010948181152343751
-9.72747802734375e-05
-8.81195068359375e-05
-8.50677490234375e-05
-8.544921875000001e-05
-8.12530517578125e-05
-7.2479248046875e-05
-6.637573242187501e-05
-6.828308105468751e-05
-8.163452148437501e-05
-0.00010070800781250001
-0.00011711120605468751
-0.0001247406005859375
-0.00012359619140625
-0.0001194000244140625
-0.0001163482666015625
-0.00011749267578125
-0.00011978149414062501
-0.00011978149414062501
-0.00011596679687500001
-0.0001087188720703125
-0.0001010894775390625
-9.8419189453125e-05
-9.65118408203125e-05
-7.591247558593751e-05
5.3405761718750005e-06
0.00020179748535156252
0.0005474090576171875
0.0010047912597656251
0.0014083862304687502
0.0014553070068359375
0.0009113311767578125
-0.0001033782958984375
-0.00111083984375
-0.0016380310058593751
-0.0015773773193359375
-0.0011852264404296877
-0.0007740020751953125
-0.00048179626464843754
-0.00029449462890625
-0.00018043518066406252
-0.00011405944824218751
-7.2479248046875e-05
-4.2724609375000004e-05
-2.288818359375e-05
-1.1444091796875e-05
-3.0517578125e-06
5.3405761718750005e-06
1.52587890625e-05
2.2125244140625003e-05
2.3651123046875e-05
2.47955322265625e-05
2.93731689453125e-05
3.5095214843750004e-05
4.119873046875e-05
4.8446655273437504e-05
5.6076049804687504e-05
6.14166259765625e-05
6.90460205078125e-05
8.0108642578125e-05
9.231567382812501e-05
0.0001010894775390625
0.00010566711425781251
0.00011138916015625001
0.000122833251953125
0.0001361846923828125
0.0001506805419921875
0.00016136169433593752
0.0001705169677734375
0.00017509460449218752
0.00017662048339843752
0.0001705169677734375
0.0001628875732421875
0.000156402587890625
0.00015220642089843752
0.0001434326171875
0.00013084411621093752
0.0001148223876953125
9.95635986328125e-05
8.20159912109375e-05
6.29425048828125e-05
4.0435791015625005e-05
1.64031982421875e-05
-6.484985351562501e-06
-2.93731689453125e-05
-5.4168701171875004e-05
-7.591247558593751e-05
-9.1552734375e-05
-0.000102996826171875
-0.00011405944824218751
-0.00012664794921875
-0.0001361846923828125
-0.0001392364501953125
-0.0001361846923828125
-0.0001323699951171875
-0.0001293182373046875
-0.00012512207031250002
-0.00011749267578125
-0.00011138916015625001
-0.00011024475097656251
-0.00010948181152343751
-0.0001071929931640625
-0.0001033782958984375
-9.65118408203125e-05
-9.0789794921875e-05
-8.659362792968751e-05
-8.087158203125001e-05
-7.5531005859375e-05
-7.400512695312501e-05
-7.74383544921875e-05
-8.20159912109375e-05
-8.354187011718751e-05
-7.896423339843751e-05
-7.66754150390625e-05
-8.087158203125001e-05
-8.926391601562501e-05
-9.26971435546875e-05
-9.19342041015625e-05
-9.0789794921875e-05
-9.0789794921875e-05
-9.117126464843751e-05
-9.231567382812501e-05
-9.1552734375e-05
-9.3841552734375e-05
-9.307861328125001e-05
-9.3841552734375e-05
-9.765625e-05
-0.00010452270507812501
-0.0001079559326171875
-0.00010223388671875
-8.6212158203125e-05
-7.019042968750001e-05
-6.0272216796875e-05
-5.45501708984375e-05
-4.6539306640625004e-05
-3.35693359375e-05
-2.86102294921875e-05
-3.5858154296875e-05
-5.340576171875e-05
-7.36236572265625e-05
-9.231567382812501e-05
-0.00010566711425781251
-0.00010986328125
-0.0001079559326171875
-0.0001033782958984375
-9.95635986328125e-05
-9.613037109375001e-05
-9.26971435546875e-05
-9.34600830078125e-05
-9.307861328125001e-05
-9.26971435546875e-05
-9.117126464843751e-05
-8.926391601562501e-05
-6.866455078125e-05
4.1961669921875e-06
0.0001811981201171875
0.00049591064453125
0.0009296417236328126
0.0013427734375
0.00145263671875
0.001000213623046875
5.6076049804687504e-05
-0.0009483337402343751
-0.0015361785888671877
-0.0015579223632812501
-0.0012218475341796875
-0.0008224487304687501
-0.0005146026611328125
-0.0003078460693359375
-0.0001800537109375
-0.0001071929931640625
-6.1798095703125e-05
-3.39508056640625e-05
-1.79290771484375e-05
-3.0517578125e-06
1.2588500976562501e-05
2.5939941406250003e-05
3.5095214843750004e-05
3.8528442382812505e-05
4.0435791015625005e-05
4.15802001953125e-05
4.38690185546875e-05
4.8065185546875005e-05
5.45501708984375e-05
6.14166259765625e-05
6.90460205078125e-05
7.591247558593751e-05
8.277893066406251e-05
8.850097656250001e-05
9.34600830078125e-05
0.000101470947265625
0.0001117706298828125
0.0001262664794921875
0.00014038085937500002
0.0001552581787109375
0.0001644134521484375
0.000170135498046875
0.00017318725585937502
0.0001735687255859375
0.00017318725585937502
0.0001739501953125
0.0001720428466796875
0.0001678466796875
0.0001605987548828125
0.00014839172363281252
0.00012893676757812502
0.00010757446289062501
8.735656738281251e-05
7.2479248046875e-05
6.1798095703125e-05
4.69207763671875e-05
2.44140625e-05
-1.52587890625e-06
-2.63214111328125e-05
-4.69207763671875e-05
-6.3323974609375e-05
-8.0108642578125e-05
-9.65118408203125e-05
-0.0001079559326171875
-0.00011520385742187501
-0.00011901855468750001
-0.0001220703125
-0.0001220703125
-0.00011787414550781251
-0.00011520385742187501
-0.00011787414550781251
-0.00012321472167968752
-0.0001224517822265625
-0.00011215209960937501
-0.0001003265380859375
-9.422302246093751e-05
-9.613037109375001e-05
-9.65118408203125e-05
-8.926391601562501e-05
-8.0108642578125e-05
-7.43865966796875e-05
-7.476806640625e-05
-7.66754150390625e-05
-7.74383544921875e-05
-7.8582763671875e-05
-8.20159912109375e-05
-8.354187011718751e-05
-8.544921875000001e-05
-8.7738037109375e-05
-9.117126464843751e-05
-9.34600830078125e-05
-9.498596191406251e-05
-9.72747802734375e-05
-0.0001003265380859375
-0.00010070800781250001
-9.803771972656251e-05
-9.307861328125001e-05
-9.34600830078125e-05
-9.918212890625e-05
-0.0001041412353515625
-0.00010223388671875
-8.926391601562501e-05
-7.36236572265625e-05
-6.4849853515625e-05
-6.40869140625e-05
-6.06536865234375e-05
-5.0354003906250004e-05
-3.7384033203125e-05
-3.2806396484375e-05
-4.1961669921875e-05
-6.37054443359375e-05
-8.6212158203125e-05
-0.000102996826171875
-0.0001068115234375
-0.00010528564453125
-0.000102996826171875
-0.00010528564453125
-0.0001079559326171875
-0.00010833740234375001
-0.00010643005371093751
-0.0001041412353515625
-9.689331054687501e-05
-9.26971435546875e-05
-9.3841552734375e-05
-9.307861328125001e-05
-6.103515625e-05
4.0817260742187504e-05
0.00025596618652343753
0.0006072998046875001
0.0010486602783203126
0.0013965606689453126
0.0013446807861328125
0.0007026672363281251
-0.00033416748046875003
-0.0012645721435546875
-0.001682281494140625
-0.00156707763671875
-0.00118560791015625
-0.000798797607421875
-0.0004966735839843751
-0.000281524658203125
-0.00015106201171875
-8.277893066406251e-05
-3.92913818359375e-05
-9.5367431640625e-06
9.5367431640625e-06
2.0599365234375e-05
3.39508056640625e-05
5.0354003906250004e-05
6.06536865234375e-05
6.52313232421875e-05
6.67572021484375e-05
7.05718994140625e-05
7.400512695312501e-05
8.0108642578125e-05
8.277893066406251e-05
8.697509765625e-05
9.26971435546875e-05
0.00010223388671875
0.00011596679687500001
0.00012664794921875
0.0001312255859375
0.00013084411621093752
0.00013427734375
0.00014839172363281252
0.00017089843750000002
0.00019035339355468752
0.000199127197265625
0.0001972198486328125
0.00019607543945312502
0.0001987457275390625
0.0002025604248046875
0.00020370483398437502
0.0002010345458984375
0.00019187927246093752
0.0001758575439453125
0.00015716552734375
0.00014190673828125
0.0001300811767578125
0.0001194000244140625
0.0001068115234375
9.1552734375e-05
7.019042968750001e-05
4.3487548828125e-05
1.4877319335937501e-05
-1.220703125e-05
-3.77655029296875e-05
-5.7601928710937505e-05
-7.36236572265625e-05
-8.7738037109375e-05
-9.8419189453125e-05
-0.0001049041748046875
-0.00010833740234375001
-0.0001110076904296875
-0.0001129150390625
-0.00011329650878906251
-0.0001110076904296875
-0.0001049041748046875
-9.689331054687501e-05
-9.19342041015625e-05
-8.926391601562501e-05
-8.544921875000001e-05
-7.781982421875001e-05
-7.209777832031251e-05
-7.324218750000001e-05
-7.591247558593751e-05
-7.171630859375e-05
-6.37054443359375e-05
-5.9890747070312504e-05
-6.256103515625001e-05
-6.98089599609375e-05
-7.43865966796875e-05
-7.62939453125e-05
-7.5531005859375e-05
-7.13348388671875e-05
-6.67572021484375e-05
-6.7901611328125e-05
-7.400512695312501e-05
-8.20159912109375e-05
-8.58306884765625e-05
-8.50677490234375e-05
-8.392333984375e-05
-8.43048095703125e-05
-8.163452148437501e-05
-7.36236572265625e-05
-6.37054443359375e-05
-5.7220458984375e-05
-5.1116943359375e-05
-4.0817260742187504e-05
-2.86102294921875e-05
-2.6702880859375e-05
-4.0435791015625005e-05
-6.37054443359375e-05
-8.544921875000001e-05
-9.95635986328125e-05
-0.00010643005371093751
-0.00010986328125
-0.00010948181152343751
-0.000106048583984375
-0.0001003265380859375
-9.803771972656251e-05
-9.765625e-05
-9.3841552734375e-05
-8.58306884765625e-05
-8.20159912109375e-05
-8.43048095703125e-05
-7.62939453125e-05
-2.44140625e-05
0.00010757446289062501
0.00036544799804687504
0.0007568359375
0.001194000244140625
0.00142974853515625
0.001158905029296875
0.00031585693359375004
-0.0007537841796875001
-0.0015304565429687502
-0.0017299652099609375
-0.001464080810546875
-0.0010402679443359375
-0.0006710052490234375
-0.00040473937988281253
-0.00022850036621093752
-0.00012321472167968752
-6.0272216796875e-05
-2.0217895507812503e-05
5.7220458984375e-06
2.3651123046875e-05
3.814697265625e-05
4.9972534179687505e-05
5.53131103515625e-05
5.83648681640625e-05
6.14166259765625e-05
6.67572021484375e-05
7.476806640625e-05
8.0108642578125e-05
8.3160400390625e-05
8.6212158203125e-05
9.26971435546875e-05
0.00010070800781250001
0.0001049041748046875
0.00010757446289062501
0.00011405944824218751
0.000124359130859375
0.000138092041015625
0.00014839172363281252
0.0001544952392578125
0.00016021728515625
0.00016937255859375002
0.00017890930175781252
0.000185394287109375
0.000186920166015625
0.000183868408203125
0.00018234252929687502
0.00018043518066406252
0.0001743316650390625
0.00015792846679687502
0.0001354217529296875
0.00011596679687500001
0.00010528564453125
9.8419189453125e-05
8.659362792968751e-05
7.13348388671875e-05
5.1879882812500005e-05
3.16619873046875e-05
9.155273437500001e-06
-1.52587890625e-05
-3.7002563476562504e-05
-5.4931640625e-05
-7.0953369140625e-05
-8.659362792968751e-05
-9.95635986328125e-05
-0.00010643005371093751
-0.000110626220703125
-0.0001117706298828125
-0.00011024475097656251
-0.0001079559326171875
-0.00010566711425781251
-0.00010223388671875
-0.0001003265380859375
-9.72747802734375e-05
-9.5367431640625e-05
-9.231567382812501e-05
-8.81195068359375e-05
-8.163452148437501e-05
-7.82012939453125e-05
-7.476806640625e-05
-7.209777832031251e-05
-6.828308105468751e-05
-6.59942626953125e-05
-6.59942626953125e-05
-6.90460205078125e-05
-6.98089599609375e-05
-7.324218750000001e-05
-7.74383544921875e-05
-8.12530517578125e-05
-8.12530517578125e-05
-8.12530517578125e-05
-8.20159912109375e-05
-8.087158203125001e-05
-7.896423339843751e-05
-8.087158203125001e-05
-8.392333984375e-05
-8.354187011718751e-05
-7.400512695312501e-05
-6.06536865234375e-05
-5.645751953125e-05
-5.7983398437500004e-05
-5.07354736328125e-05
-3.2806396484375e-05
-1.86920166015625e-05
-2.74658203125e-05
-5.83648681640625e-05
-9.117126464843751e-05
-0.0001087188720703125
-0.0001129150390625
-0.0001110076904296875
-0.00010948181152343751
-0.00010948181152343751
-0.000109100341796875
-0.00010528564453125
-0.000101470947265625
-9.918212890625e-05
-9.880065917968751e-05
-9.765625e-05
-9.72747802734375e-05
-9.19342041015625e-05
-5.9509277343750005e-05
4.5013427734375e-05
0.00027923583984375
0.0006591796875
0.0011081695556640625
0.001403045654296875
0.0012348175048828127
0.00048103332519531253
-0.0005840301513671875
-0.001441192626953125
-0.0017368316650390625
-0.0015159606933593751
-0.001079559326171875
-0.0006832122802734376
-0.00040435791015625
-0.0002254486083984375
-0.00012512207031250002
-6.90460205078125e-05
-3.3187866210937504e-05
-6.484985351562501e-06
1.2969970703125001e-05
2.74658203125e-05
3.77655029296875e-05
4.3487548828125e-05
4.2724609375000004e-05
4.119873046875e-05
4.6539306640625004e-05
5.4168701171875004e-05
6.103515625e-05
6.3323974609375e-05
6.561279296875e-05
6.7901611328125e-05
7.13348388671875e-05
7.591247558593751e-05
8.163452148437501e-05
9.34600830078125e-05
0.0001041412353515625
0.000110626220703125
0.0001186370849609375
0.0001277923583984375
0.00013885498046875
0.00014839172363281252
0.00015754699707031252
0.0001678466796875
0.00017280578613281252
0.00017089843750000002
0.00015716552734375
0.000139617919921875
0.0001285552978515625
0.0001262664794921875
0.00012168884277343751
0.00010757446289062501
8.50677490234375e-05
6.3323974609375e-05
5.07354736328125e-05
4.4631958007812504e-05
3.39508056640625e-05
1.8310546875000003e-05
-1.1444091796875002e-06
-2.17437744140625e-05
-4.1961669921875e-05
-6.29425048828125e-05
-8.544921875000001e-05
-0.0001041412353515625
-0.0001129150390625
-0.00011405944824218751
-0.0001148223876953125
-0.00011711120605468751
-0.000118255615234375
-0.00011749267578125
-0.00011405944824218751
-0.000110626220703125
-0.00010452270507812501
-9.5367431640625e-05
-9.040832519531251e-05
-9.498596191406251e-05
-0.00010261535644531251
-0.0001041412353515625
-9.57489013671875e-05
-8.277893066406251e-05
-7.5531005859375e-05
-7.82012939453125e-05
-8.659362792968751e-05
-9.3841552734375e-05
-9.72747802734375e-05
-9.918212890625e-05
-9.689331054687501e-05
-9.498596191406251e-05
-9.422302246093751e-05
-9.689331054687501e-05
-0.00010185241699218751
-0.00010375976562500001
-0.00010375976562500001
-0.000101470947265625
-9.8419189453125e-05
-9.613037109375001e-05
-9.34600830078125e-05
-8.659362792968751e-05
-7.8582763671875e-05
-6.90460205078125e-05
-5.645751953125e-05
-4.15802001953125e-05
-3.62396240234375e-05
-5.07354736328125e-05
-8.0108642578125e-05
-0.00011024475097656251
-0.00012702941894531252
-0.0001300811767578125
-0.00012702941894531252
-0.0001247406005859375
-0.00012702941894531252
-0.0001277923583984375
-0.000122833251953125
-0.00011711120605468751
-0.00011444091796875
-0.0001129150390625
-0.000109100341796875
-0.00010757446289062501
-0.00010528564453125
-7.781982421875001e-05
2.5177001953125002e-05
0.0002658843994140625
0.0006607055664062501
0.0011188507080078125
0.0014083862304687502
0.001226806640625
0.000469970703125
-0.0005847930908203125
-0.0014308929443359376
-0.0017307281494140627
-0.0015232086181640625
-0.0010986328125
-0.0007061004638671876
-0.000424957275390625
-0.000240325927734375
-0.000131988525390625
-7.400512695312501e-05
-3.62396240234375e-05
-9.918212890625e-06
6.866455078125e-06
1.9454956054687502e-05
2.93731689453125e-05
3.7384033203125e-05
4.31060791015625e-05
4.6157836914062505e-05
4.730224609375e-05
5.340576171875e-05
5.8746337890625e-05
6.3323974609375e-05
6.9427490234375e-05
8.277893066406251e-05
9.57489013671875e-05
0.0001041412353515625
0.00010375976562500001
0.00010185241699218751
0.0001033782958984375
0.00010986328125
0.0001194000244140625
0.00013427734375
0.00014991760253906252
0.0001628875732421875
0.0001705169677734375
0.0001720428466796875
0.0001720428466796875
0.0001697540283203125
0.00016555786132812502
0.000153350830078125
0.0001377105712890625
0.0001201629638671875
0.0001049041748046875
9.307861328125001e-05
8.88824462890625e-05
8.850097656250001e-05
8.468627929687501e-05
7.171630859375e-05
4.9972534179687505e-05
2.93731689453125e-05
1.64031982421875e-05
0.0
-2.6702880859375e-05
-6.21795654296875e-05
-9.34600830078125e-05
-0.00011520385742187501
-0.00012512207031250002
-0.00012702941894531252
-0.0001220703125
-0.00011444091796875
-0.00010986328125
-0.00011520385742187501
-0.0001194000244140625
-0.00011901855468750001
-0.0001117706298828125
-0.0001010894775390625
-9.5367431640625e-05
-9.498596191406251e-05
-9.46044921875e-05
-9.3841552734375e-05
-9.613037109375001e-05
-9.95635986328125e-05
-9.5367431640625e-05
-8.50677490234375e-05
-8.087158203125001e-05
-8.926391601562501e-05
-0.000102996826171875
-0.00010948181152343751
-0.00010643005371093751
-0.00010375976562500001
-0.0001041412353515625
-0.000102996826171875
-9.880065917968751e-05
-9.65118408203125e-05
-0.00010261535644531251
-0.00010643005371093751
-9.8419189453125e-05
-8.354187011718751e-05
-7.2479248046875e-05
-7.05718994140625e-05
-7.324218750000001e-05
-6.446838378906251e-05
-4.76837158203125e-05
-3.8909912109375004e-05
-5.53131103515625e-05
-8.58306884765625e-05
-0.00011329650878906251
-0.00012512207031250002
-0.000125885009765625
-0.0001262664794921875
-0.00012969970703125
-0.0001354217529296875
-0.00013885498046875
-0.00013580322265625
-0.0001312255859375
-0.0001255035400390625
-0.0001194000244140625
-0.00011711120605468751
-0.00012321472167968752
-0.0001186370849609375
-7.591247558593751e-05
4.3487548828125e-05
0.0002849578857421875
0.00067138671875
0.00113372802734375
0.0014247894287109375
0.00121917724609375
0.00041618347167968753
-0.0006610870361328125
-0.0014911651611328126
-0.0017658233642578126
-0.0015651702880859375
-0.0011737823486328127
-0.0008022308349609375
-0.0005130767822265625
-0.0003040313720703125
-0.000170135498046875
-9.040832519531251e-05
-4.31060791015625e-05
-1.7547607421875002e-05
-1.9073486328125e-06
1.2588500976562501e-05
2.93731689453125e-05
4.9972534179687505e-05
6.4849853515625e-05
6.98089599609375e-05
6.67572021484375e-05
6.4849853515625e-05
6.866455078125e-05
7.324218750000001e-05
7.400512695312501e-05
7.705688476562501e-05
8.50677490234375e-05
9.72747802734375e-05
0.00010833740234375001
0.00011711120605468751
0.0001255035400390625
0.0001331329345703125
0.0001434326171875
0.0001552581787109375
0.0001644134521484375
0.0001682281494140625
0.00017089843750000002
0.0001739501953125
0.00017471313476562502
0.00017089843750000002
0.0001605987548828125
0.000148773193359375
0.00013580322265625
0.00012702941894531252
0.00011711120605468751
0.00010528564453125
9.117126464843751e-05
7.82012939453125e-05
7.019042968750001e-05
6.67572021484375e-05
6.06536865234375e-05
4.38690185546875e-05
2.3269653320312502e-05
-2.2888183593750003e-06
-2.44140625e-05
-4.5013427734375e-05
-6.59942626953125e-05
-8.81195068359375e-05
-0.000102996826171875
-0.00010223388671875
-9.3841552734375e-05
-9.117126464843751e-05
-9.689331054687501e-05
-0.00010185241699218751
-9.613037109375001e-05
-8.659362792968751e-05
-8.20159912109375e-05
-7.896423339843751e-05
-7.476806640625e-05
-6.75201416015625e-05
-6.0272216796875e-05
-5.91278076171875e-05
-5.83648681640625e-05
-5.6076049804687504e-05
-5.07354736328125e-05
-4.69207763671875e-05
-4.9591064453125e-05
-5.7220458984375e-05
-6.4849853515625e-05
-6.98089599609375e-05
-7.05718994140625e-05
-7.019042968750001e-05
-6.98089599609375e-05
-7.171630859375e-05
-7.28607177734375e-05
-6.98089599609375e-05
-6.4849853515625e-05
-6.103515625e-05
-5.9509277343750005e-05
-5.7220458984375e-05
-5.14984130859375e-05
-4.57763671875e-05
-3.92913818359375e-05
-2.93731689453125e-05
-1.983642578125e-05
-2.74658203125e-05
-5.7220458984375e-05
-9.3841552734375e-05
-0.0001163482666015625
-0.00011901855468750001
-0.0001163482666015625
-0.00011749267578125
-0.00011901855468750001
-0.0001148223876953125
-0.0001110076904296875
-0.0001148223876953125
-0.0001220703125
-0.00011978149414062501
-0.0001117706298828125
-0.0001071929931640625
-9.689331054687501e-05
-5.7601928710937505e-05
4.8446655273437504e-05
0.000278472900390625
0.00066375732421875
0.001129150390625
0.001421356201171875
0.0012100219726562502
0.00039978027343750004
-0.0006832122802734376
-0.0015071868896484376
-0.0017665863037109376
-0.001543426513671875
-0.001128387451171875
-0.0007419586181640625
-0.0004489898681640625
-0.0002513885498046875
-0.00013885498046875
-8.04901123046875e-05
-4.2724609375000004e-05
-1.33514404296875e-05
8.0108642578125e-06
2.3269653320312502e-05
3.4332275390625e-05
4.3487548828125e-05
5.1116943359375e-05
5.6076049804687504e-05
6.14166259765625e-05
6.4849853515625e-05
6.52313232421875e-05
6.637573242187501e-05
7.324218750000001e-05
8.43048095703125e-05
9.613037109375001e-05
0.000106048583984375
0.00010986328125
0.000113677978515625
0.00012054443359375
0.00013275146484375002
0.000142669677734375
0.0001491546630859375
0.00015373229980468752
0.000162506103515625
0.00016937255859375002
0.00017509460449218752
0.00017242431640625
0.0001697540283203125
0.00016555786132812502
0.0001590728759765625
0.00014610290527343752
0.000133514404296875
0.0001224517822265625
0.0001129150390625
0.00010261535644531251
9.26971435546875e-05
8.163452148437501e-05
7.2479248046875e-05
5.5694580078125005e-05
3.47137451171875e-05
1.1444091796875e-05
-8.773803710937501e-06
-2.93731689453125e-05
-5.30242919921875e-05
-7.591247558593751e-05
-9.1552734375e-05
-9.34600830078125e-05
-9.307861328125001e-05
-9.918212890625e-05
-0.000109100341796875
-0.00011024475097656251
-0.0001010894775390625
-9.040832519531251e-05
-8.468627929687501e-05
-8.20159912109375e-05
-8.12530517578125e-05
-8.277893066406251e-05
-8.468627929687501e-05
-7.781982421875001e-05
-6.7901611328125e-05
-6.37054443359375e-05
-6.4849853515625e-05
-6.40869140625e-05
-6.1798095703125e-05
-6.0272216796875e-05
-6.40869140625e-05
-6.7138671875e-05
-6.75201416015625e-05
-6.52313232421875e-05
-6.446838378906251e-05
-6.52313232421875e-05
-6.637573242187501e-05
-6.75201416015625e-05
-6.59942626953125e-05
-6.3323974609375e-05
-6.06536865234375e-05
-6.103515625e-05
-5.91278076171875e-05
-5.2261352539062504e-05
-3.7384033203125e-05
-3.0517578125e-05
-4.31060791015625e-05
-7.13348388671875e-05
-0.00010070800781250001
-0.0001155853271484375
-0.000116729736328125
-0.00011520385742187501
-0.00011901855468750001
-0.0001239776611328125
-0.000125885009765625
-0.0001239776611328125
-0.00011749267578125
-0.00011024475097656251
-0.00010223388671875
-0.00010185241699218751
-0.0001049041748046875
-9.498596191406251e-05
-4.6539306640625004e-05
8.659362792968751e-05
0.0003528594970703125
0.000759124755859375
0.0011989593505859375
0.0014019012451171875
0.0010677337646484376
0.00017089843750000002
-0.00090789794921875
-0.001650238037109375
-0.001806640625
-0.0015125274658203125
-0.00107269287109375
-0.000690460205078125
-0.00041656494140625
-0.00023574829101562502
-0.00012664794921875
-5.5694580078125005e-05
-1.2588500976562501e-05
8.392333984375e-06
1.9454956054687502e-05
3.4332275390625e-05
4.8446655273437504e-05
5.4168701171875004e-05
5.7220458984375e-05
6.446838378906251e-05
7.476806640625e-05
8.468627929687501e-05
9.002685546875e-05
9.26971435546875e-05
9.422302246093751e-05
9.918212890625e-05
0.0001079559326171875
0.0001155853271484375
0.0001239776611328125
0.0001300811767578125
0.0001392364501953125
0.00015106201171875
0.00016136169433593752
0.0001682281494140625
0.0001705169677734375
0.00017242431640625
0.00017852783203125002
0.00018844604492187502
0.00019760131835937502
0.0002025604248046875
0.00019683837890625
0.00017700195312500002
0.00015029907226562502
0.0001312255859375
0.000124359130859375
0.000124359130859375
0.0001155853271484375
9.8419189453125e-05
7.82012939453125e-05
5.9509277343750005e-05
4.53948974609375e-05
2.8228759765625e-05
3.0517578125e-06
-3.1280517578125004e-05
-6.52313232421875e-05
-8.7738037109375e-05
-0.0001010894775390625
-0.00010986328125
-0.00011787414550781251
-0.000128173828125
-0.0001316070556640625
-0.0001293182373046875
-0.00012092590332031251
-0.00011787414550781251
-0.000116729736328125
-0.00011596679687500001
-0.00011024475097656251
-0.000101470947265625
-9.1552734375e-05
-8.468627929687501e-05
-7.705688476562501e-05
-7.0953369140625e-05
-6.446838378906251e-05
-6.37054443359375e-05
-6.3323974609375e-05
-6.4849853515625e-05
-5.9509277343750005e-05
-5.1879882812500005e-05
-5.07354736328125e-05
-5.6076049804687504e-05
-5.7983398437500004e-05
-5.5694580078125005e-05
-5.45501708984375e-05
-5.68389892578125e-05
-5.8746337890625e-05
-5.5694580078125005e-05
-4.92095947265625e-05
-4.6157836914062505e-05
-4.4631958007812504e-05
-3.92913818359375e-05
-3.2806396484375e-05
-3.5858154296875e-05
-5.4931640625e-05
-8.354187011718751e-05
-0.00010528564453125
-0.0001129150390625
-0.0001129150390625
-0.000113677978515625
-0.00011711120605468751
-0.00011520385742187501
-0.000110626220703125
-0.00010833740234375001
-0.00011024475097656251
-0.0001079559326171875
-0.0001041412353515625
-0.00010261535644531251
-9.880065917968751e-05
-6.7901611328125e-05
2.09808349609375e-05
0.0002155303955078125
0.0005504608154296875
0.0009883880615234376
0.0013458251953125
0.0013050079345703126
0.00065765380859375
-0.00040740966796875004
-0.0013751983642578125
-0.0018146514892578127
-0.0016857147216796876
-0.0012641906738281251
-0.000835418701171875
-0.0005130767822265625
-0.00029487609863281254
-0.0001583099365234375
-7.400512695312501e-05
-1.678466796875e-05
1.86920166015625e-05
3.5858154296875e-05
4.57763671875e-05
5.5694580078125005e-05
6.7138671875e-05
7.36236572265625e-05
7.66754150390625e-05
8.163452148437501e-05
8.926391601562501e-05
9.57489013671875e-05
9.880065917968751e-05
9.880065917968751e-05
0.00010223388671875
0.000110626220703125
0.0001186370849609375
0.0001255035400390625
0.0001323699951171875
0.00013847351074218752
0.00014419555664062502
0.0001529693603515625
0.00016326904296875002
0.0001739501953125
0.00018157958984375
0.00018653869628906252
0.0001895904541015625
0.00018997192382812502
0.0001857757568359375
0.00017852783203125002
0.0001705169677734375
0.00015945434570312502
0.0001438140869140625
0.000125885009765625
0.00010986328125
9.765625e-05
8.88824462890625e-05
8.04901123046875e-05
7.019042968750001e-05
5.7983398437500004e-05
4.00543212890625e-05
1.4495849609375001e-05
-1.373291015625e-05
-3.8528442382812505e-05
-5.7983398437500004e-05
-7.400512695312501e-05
-8.659362792968751e-05
-9.3841552734375e-05
-9.918212890625e-05
-0.00010185241699218751
-0.0001033782958984375
-0.0001033782958984375
-0.000101470947265625
-9.5367431640625e-05
-9.117126464843751e-05
-8.697509765625e-05
-8.087158203125001e-05
-7.28607177734375e-05
-6.828308105468751e-05
-6.40869140625e-05
-5.9890747070312504e-05
-5.7601928710937505e-05
-5.4168701171875004e-05
-5.45501708984375e-05
-5.07354736328125e-05
-4.6157836914062505e-05
-4.1961669921875e-05
-4.31060791015625e-05
-4.730224609375e-05
-5.14984130859375e-05
-5.340576171875e-05
-5.3787231445312505e-05
-5.2642822265625e-05
-4.9972534179687505e-05
-4.8828125e-05
-5.07354736328125e-05
-5.30242919921875e-05
-4.9972534179687505e-05
-3.814697265625e-05
-2.3269653320312502e-05
-2.09808349609375e-05
-3.6621093750000005e-05
-6.4849853515625e-05
-9.19342041015625e-05
-0.0001068115234375
-0.00011024475097656251
-0.00010757446289062501
-0.0001079559326171875
-0.000109100341796875
-0.0001117706298828125
-0.00011329650878906251
-0.0001129150390625
-0.00010528564453125
-9.8419189453125e-05
-9.65118408203125e-05
-9.498596191406251e-05
-6.9427490234375e-05
1.71661376953125e-05
0.00022430419921875002
0.0005828857421875
0.0010341644287109376
0.00136566162109375
0.0012603759765625001
0.00054931640625
-0.000531768798828125
-0.0014568328857421876
-0.001819610595703125
-0.0016201019287109377
-0.0011611938476562501
-0.0007335662841796875
-0.00043525695800781253
-0.000244903564453125
-0.0001312255859375
-6.52313232421875e-05
-2.17437744140625e-05
6.484985351562501e-06
2.2125244140625003e-05
3.1280517578125004e-05
3.7384033203125e-05
4.3487548828125e-05
5.0354003906250004e-05
5.8746337890625e-05
6.7901611328125e-05
7.324218750000001e-05
7.66754150390625e-05
8.087158203125001e-05
8.392333984375e-05
8.6212158203125e-05
9.040832519531251e-05
9.307861328125001e-05
9.5367431640625e-05
9.72747802734375e-05
0.000102996826171875
0.00011520385742187501
0.0001323699951171875
0.0001491546630859375
0.0001583099365234375
0.00016555786132812502
0.0001705169677734375
0.00017242431640625
0.00016632080078125
0.00014839172363281252
0.0001247406005859375
0.0001087188720703125
0.00010528564453125
0.00010757446289062501
0.000102996826171875
8.926391601562501e-05
7.171630859375e-05
5.7983398437500004e-05
4.6539306640625004e-05
3.4332275390625e-05
2.3651123046875e-05
1.33514404296875e-05
3.814697265625e-07
-1.9454956054687502e-05
-4.3487548828125e-05
-6.40869140625e-05
-7.82012939453125e-05
-8.50677490234375e-05
-8.50677490234375e-05
-8.392333984375e-05
-8.96453857421875e-05
-9.918212890625e-05
-0.000109100341796875
-0.000113677978515625
-0.0001148223876953125
-0.00011215209960937501
-0.0001049041748046875
-9.5367431640625e-05
-8.96453857421875e-05
-8.735656738281251e-05
-8.659362792968751e-05
-7.896423339843751e-05
-7.324218750000001e-05
-7.36236572265625e-05
-7.74383544921875e-05
-7.896423339843751e-05
-7.591247558593751e-05
-7.36236572265625e-05
-6.9427490234375e-05
-6.828308105468751e-05
-7.2479248046875e-05
-7.972717285156251e-05
-9.040832519531251e-05
-9.880065917968751e-05
-9.918212890625e-05
-9.422302246093751e-05
-8.354187011718751e-05
-7.2479248046875e-05
-6.59942626953125e-05
-6.29425048828125e-05
-5.9890747070312504e-05
-5.340576171875e-05
-5.1879882812500005e-05
-6.4849853515625e-05
-9.002685546875e-05
-0.00011138916015625001
-0.00011901855468750001
-0.000118255615234375
-0.00012321472167968752
-0.000133514404296875
-0.0001434326171875
-0.00014801025390625002
-0.00014228820800781252
-0.000131988525390625
-0.0001220703125
-0.000121307373046875
-0.0001312255859375
-0.0001373291015625
-0.0001194000244140625
-5.3787231445312505e-05
0.0001148223876953125
0.0004405975341796875
0.0008987426757812501
0.0013130187988281252
0.001367950439453125
0.0008243560791015626
-0.000199127197265625
-0.001222991943359375
-0.0017765045166015627
-0.0017364501953125002
-0.0013336181640625
-0.0008823394775390625
-0.0005401611328125
-0.00031127929687500003
-0.00016632080078125
-8.087158203125001e-05
-3.62396240234375e-05
-1.983642578125e-05
-2.17437744140625e-05
-1.64031982421875e-05
-1.1444091796875002e-06
1.6021728515625e-05
2.3651123046875e-05
2.86102294921875e-05
3.7002563476562504e-05
4.31060791015625e-05
4.0817260742187504e-05
4.00543212890625e-05
5.2261352539062504e-05
7.36236572265625e-05
8.6212158203125e-05
8.544921875000001e-05
8.23974609375e-05
8.6212158203125e-05
9.57489013671875e-05
0.00010566711425781251
0.0001155853271484375
0.0001239776611328125
0.00013275146484375002
0.00014419555664062502
0.00015563964843750002
0.000160980224609375
0.0001583099365234375
0.0001529693603515625
0.000147247314453125
0.00014190673828125
0.000128173828125
0.00010833740234375001
8.96453857421875e-05
8.04901123046875e-05
7.66754150390625e-05
7.705688476562501e-05
7.62939453125e-05
6.866455078125e-05
5.7220458984375e-05
4.0435791015625005e-05
1.9454956054687502e-05
-1.02996826171875e-05
-4.3487548828125e-05
-6.98089599609375e-05
-8.163452148437501e-05
-8.735656738281251e-05
-9.8419189453125e-05
-0.0001087188720703125
-0.0001163482666015625
-0.00011787414550781251
-0.00011711120605468751
-0.00011329650878906251
-0.00010528564453125
-9.19342041015625e-05
-7.8582763671875e-05
-6.90460205078125e-05
-7.324218750000001e-05
-9.19342041015625e-05
-0.00010948181152343751
-0.00010452270507812501
-7.705688476562501e-05
-5.2642822265625e-05
-5.14984130859375e-05
-6.4849853515625e-05
-7.74383544921875e-05
-7.705688476562501e-05
-6.52313232421875e-05
-5.6076049804687504e-05
-5.5694580078125005e-05
-6.06536865234375e-05
-6.828308105468751e-05
-7.591247558593751e-05
-8.392333984375e-05
-9.0789794921875e-05
-8.88824462890625e-05
-7.2479248046875e-05
-5.2642822265625e-05
-4.4250488281250005e-05
-4.92095947265625e-05
-5.0354003906250004e-05
-5.2642822265625e-05
-6.1798095703125e-05
-7.972717285156251e-05
-0.00010185241699218751
-0.00011749267578125
-0.00012168884277343751
-0.0001255035400390625
-0.0001338958740234375
-0.00013847351074218752
-0.0001312255859375
-0.00012092590332031251
-0.00011596679687500001
-0.000121307373046875
-0.00012702941894531252
-0.00012359619140625
-0.0001117706298828125
-8.58306884765625e-05
-1.9454956054687502e-05
0.0001331329345703125
0.00042648315429687504
0.000859832763671875
0.0012920379638671877
0.00141448974609375
0.0009506225585937501
-3.2806396484375e-05
-0.0010848999023437501
-0.0017097473144531252
-0.0017505645751953126
-0.001422882080078125
-0.0010238647460937501
-0.0006870269775390626
-0.00041809082031250003
-0.0002193450927734375
-0.000102996826171875
-4.5013427734375e-05
-8.0108642578125e-06
2.4032592773437503e-05
4.92095947265625e-05
5.7601928710937505e-05
5.30242919921875e-05
5.3787231445312505e-05
6.52313232421875e-05
7.705688476562501e-05
8.392333984375e-05
8.468627929687501e-05
8.697509765625e-05
9.803771972656251e-05
0.000113677978515625
0.0001224517822265625
0.00012054443359375
0.0001129150390625
0.0001148223876953125
0.00013465881347656252
0.00016136169433593752
0.0001720428466796875
0.00016632080078125
0.000170135498046875
0.0001888275146484375
0.00020942687988281252
0.0002193450927734375
0.00021667480468750002
0.00020904541015625002
0.00019989013671875002
0.0001888275146484375
0.00017852783203125002
0.0001678466796875
0.00015411376953125002
0.00013580322265625
0.00011978149414062501
0.00011024475097656251
0.00010452270507812501
9.422302246093751e-05
7.705688476562501e-05
5.30242919921875e-05
1.9454956054687502e-05
-1.5640258789062502e-05
-4.4631958007812504e-05
-6.59942626953125e-05
-8.50677490234375e-05
-0.00010986328125
-0.00013465881347656252
-0.000153350830078125
-0.00016021728515625
-0.00015869140625
-0.0001529693603515625
-0.00014801025390625002
-0.00014610290527343752
-0.00014610290527343752
-0.0001361846923828125
-0.00012168884277343751
-0.00010833740234375001
-0.00010261535644531251
-9.8419189453125e-05
-9.1552734375e-05
-8.3160400390625e-05
-7.591247558593751e-05
-6.90460205078125e-05
-6.256103515625001e-05
-5.645751953125e-05
-5.3787231445312505e-05
-5.53131103515625e-05
-5.91278076171875e-05
-6.446838378906251e-05
-7.2479248046875e-05
-7.66754150390625e-05
-7.591247558593751e-05
-7.36236572265625e-05
-7.514953613281251e-05
-7.781982421875001e-05
-7.5531005859375e-05
-6.29425048828125e-05
-4.9972534179687505e-05
-5.0354003906250004e-05
-7.400512695312501e-05
-0.00011024475097656251
-0.00014038085937500002
-0.000153350830078125
-0.00015220642089843752
-0.00014839172363281252
-0.0001453399658203125
-0.00014190673828125
-0.0001373291015625
-0.00013275146484375002
-0.0001277923583984375
-0.0001239776611328125
-0.0001262664794921875
-0.000125885009765625
-0.0001041412353515625
-3.6621093750000005e-05
0.00012321472167968752
0.00042762756347656253
0.000853729248046875
0.001227569580078125
0.00122833251953125
0.000628662109375
-0.0004108428955078125
-0.0013854980468750002
-0.00184478759765625
-0.0017269134521484377
-0.001299285888671875
-0.0008617401123046875
-0.00053558349609375
-0.000313568115234375
-0.000168609619140625
-8.20159912109375e-05
-2.55584716796875e-05
7.62939453125e-06
2.288818359375e-05
3.7384033203125e-05
5.14984130859375e-05
6.3323974609375e-05
7.13348388671875e-05
7.8582763671875e-05
8.468627929687501e-05
8.7738037109375e-05
8.850097656250001e-05
9.26971435546875e-05
9.994506835937501e-05
0.000109100341796875
0.00011444091796875
0.0001194000244140625
0.0001262664794921875
0.0001377105712890625
0.00014839172363281252
0.00015602111816406252
0.0001621246337890625
0.0001697540283203125
0.00017890930175781252
0.00018768310546875
0.00019378662109375002
0.00019569396972656252
0.00019378662109375002
0.000189208984375
0.00018157958984375
0.000170135498046875
0.000156402587890625
0.000139617919921875
0.0001224517822265625
0.0001079559326171875
9.72747802734375e-05
8.850097656250001e-05
8.04901123046875e-05
7.05718994140625e-05
5.7220458984375e-05
3.814697265625e-05
1.4877319335937501e-05
-9.918212890625e-06
-3.16619873046875e-05
-5.07354736328125e-05
-6.866455078125e-05
-8.3160400390625e-05
-9.26971435546875e-05
-9.65118408203125e-05
-9.498596191406251e-05
-9.65118408203125e-05
-9.918212890625e-05
-0.0001003265380859375
-9.689331054687501e-05
-8.926391601562501e-05
-8.354187011718751e-05
-7.9345703125e-05
-7.514953613281251e-05
-6.75201416015625e-05
-5.8746337890625e-05
-5.4168701171875004e-05
-5.2642822265625e-05
-5.2261352539062504e-05
-5.14984130859375e-05
-5.4168701171875004e-05
-5.7601928710937505e-05
-5.7983398437500004e-05
-5.53131103515625e-05
-5.4168701171875004e-05
-5.68389892578125e-05
-6.14166259765625e-05
-6.446838378906251e-05
-6.637573242187501e-05
-6.7138671875e-05
-6.40869140625e-05
-5.91278076171875e-05
-5.4931640625e-05
-5.2642822265625e-05
-4.9591064453125e-05
-4.15802001953125e-05
-2.7847290039062503e-05
-2.1362304687500002e-05
-3.5095214843750004e-05
-6.59942626953125e-05
-9.57489013671875e-05
-0.00011138916015625001
-0.0001110076904296875
-0.0001079559326171875
-0.0001087188720703125
-0.00010986328125
-0.000109100341796875
-0.0001071929931640625
-0.00010375976562500001
-9.765625e-05
-9.880065917968751e-05
-0.00010375976562500001
-9.498596191406251e-05
-4.6539306640625004e-05
9.231567382812501e-05
0.00037841796875
0.0008068084716796875
0.0012477874755859376
0.001415252685546875
0.0010234832763671875
8.392333984375e-05
-0.000988006591796875
-0.0016704559326171876
-0.0017429351806640626
-0.00138397216796875
-0.00092315673828125
-0.0005634307861328126
-0.00032844543457031253
-0.00018310546875
-9.880065917968751e-05
-4.69207763671875e-05
-1.4495849609375001e-05
4.577636718750001e-06
1.52587890625e-05
2.288818359375e-05
3.08990478515625e-05
3.54766845703125e-05
4.15802001953125e-05
4.76837158203125e-05
5.340576171875e-05
5.83648681640625e-05
6.37054443359375e-05
6.9427490234375e-05
7.324218750000001e-05
7.705688476562501e-05
8.43048095703125e-05
9.117126464843751e-05
9.765625e-05
0.00010261535644531251
0.00011138916015625001
0.0001239776611328125
0.00013465881347656252
0.0001415252685546875
0.00014610290527343752
0.00015029907226562502
0.00015029907226562502
0.0001468658447265625
0.0001434326171875
0.00014038085937500002
0.00013580322265625
0.0001220703125
0.00010223388671875
8.3160400390625e-05
6.866455078125e-05
6.0272216796875e-05
5.645751953125e-05
5.68389892578125e-05
5.4931640625e-05
4.6157836914062505e-05
2.8991699218750002e-05
9.5367431640625e-06
-1.1062622070312501e-05
-3.08990478515625e-05
-5.4168701171875004e-05
-7.476806640625e-05
-8.697509765625e-05
-9.34600830078125e-05
-9.95635986328125e-05
-0.0001041412353515625
-0.00010223388671875
-9.57489013671875e-05
-9.117126464843751e-05
-9.34600830078125e-05
-9.72747802734375e-05
-9.46044921875e-05
-8.659362792968751e-05
-8.04901123046875e-05
-7.74383544921875e-05
-7.476806640625e-05
-7.171630859375e-05
-6.98089599609375e-05
-7.019042968750001e-05
-7.43865966796875e-05
-7.62939453125e-05
-7.43865966796875e-05
-7.019042968750001e-05
-6.7138671875e-05
-6.828308105468751e-05
-7.171630859375e-05
-7.74383544921875e-05
-8.0108642578125e-05
-8.23974609375e-05
-8.43048095703125e-05
-8.659362792968751e-05
-8.468627929687501e-05
-7.8582763671875e-05
-7.0953369140625e-05
-6.59942626953125e-05
-6.14166259765625e-05
-5.340576171875e-05
-4.2343139648437505e-05
-4.2343139648437505e-05
-5.7601928710937505e-05
-8.23974609375e-05
-0.00010643005371093751
-0.000118255615234375
-0.000122833251953125
-0.000121307373046875
-0.000124359130859375
-0.0001262664794921875
-0.00012702941894531252
-0.000122833251953125
-0.00011901855468750001
-0.0001155853271484375
-0.00011711120605468751
-0.00011901855468750001
-0.000109100341796875
-6.06536865234375e-05
7.36236572265625e-05
0.00035209655761718754
0.0007770538330078126
0.0012332916259765625
0.0014495849609375
0.001123809814453125
0.00022468566894531252
-0.0008647918701171876
-0.0016113281250000001
-0.0017520904541015625
-0.00143280029296875
-0.0009822845458984375
-0.0006183624267578126
-0.00037231445312500003
-0.0002140045166015625
-0.00012054443359375
-6.7901611328125e-05
-3.6621093750000005e-05
-1.79290771484375e-05
-4.9591064453125e-06
8.773803710937501e-06
2.0217895507812503e-05
2.8228759765625e-05
3.5095214843750004e-05
3.92913818359375e-05
4.31060791015625e-05
4.57763671875e-05
4.76837158203125e-05
5.30242919921875e-05
6.3323974609375e-05
7.43865966796875e-05
8.468627929687501e-05
9.0789794921875e-05
9.19342041015625e-05
9.231567382812501e-05
9.72747802734375e-05
0.00011024475097656251
0.0001277923583984375
0.0001415252685546875
0.0001514434814453125
0.00015754699707031252
0.0001590728759765625
0.00015602111816406252
0.000154876708984375
0.00015563964843750002
0.00015602111816406252
0.0001468658447265625
0.00013084411621093752
0.00010948181152343751
9.040832519531251e-05
8.12530517578125e-05
8.354187011718751e-05
8.50677490234375e-05
7.476806640625e-05
5.340576171875e-05
3.204345703125e-05
1.4877319335937501e-05
-2.6702880859375003e-06
-2.7084350585937502e-05
-5.645751953125e-05
-8.0108642578125e-05
-9.26971435546875e-05
-9.95635986328125e-05
-0.00010566711425781251
-0.0001148223876953125
-0.00012168884277343751
-0.000122833251953125
-0.000116729736328125
-0.0001117706298828125
-0.00010757446289062501
-0.0001071929931640625
-0.000101470947265625
-9.231567382812501e-05
-8.43048095703125e-05
-8.12530517578125e-05
-8.0108642578125e-05
-8.0108642578125e-05
-8.04901123046875e-05
-8.0108642578125e-05
-7.82012939453125e-05
-7.74383544921875e-05
-7.74383544921875e-05
-8.23974609375e-05
-8.58306884765625e-05
-8.926391601562501e-05
-9.46044921875e-05
-9.8419189453125e-05
-9.19342041015625e-05
-8.163452148437501e-05
-7.8582763671875e-05
-8.81195068359375e-05
-0.0001033782958984375
-0.00011024475097656251
-0.0001003265380859375
-8.58306884765625e-05
-7.896423339843751e-05
-7.781982421875001e-05
-7.781982421875001e-05
-7.781982421875001e-05
-7.2479248046875e-05
-5.9890747070312504e-05
-4.69207763671875e-05
-4.8828125e-05
-7.28607177734375e-05
-0.00010375976562500001
-0.000122833251953125
-0.00012321472167968752
-0.0001194000244140625
-0.000125885009765625
-0.00013885498046875
-0.0001445770263671875
-0.00013847351074218752
-0.00012321472167968752
-0.0001125335693359375
-0.000110626220703125
-0.00011329650878906251
-0.00010643005371093751
-7.5531005859375e-05
-1.9073486328125e-06
0.00016555786132812502
0.000478363037109375
0.0009258270263671876
0.00134124755859375
0.0014091491699218751
0.0008853912353515626
-0.0001125335693359375
-0.00111083984375
-0.0016632080078125
-0.00167388916015625
-0.0013538360595703126
-0.0009647369384765625
-0.0006320953369140626
-0.000379180908203125
-0.00021133422851562502
-0.0001129150390625
-5.5694580078125005e-05
-2.17437744140625e-05
-5.3405761718750005e-06
1.33514404296875e-05
3.7384033203125e-05
5.340576171875e-05
5.53131103515625e-05
5.4931640625e-05
6.3323974609375e-05
7.781982421875001e-05
9.307861328125001e-05
0.0001010894775390625
0.0001010894775390625
9.5367431640625e-05
9.34600830078125e-05
0.0001041412353515625
0.00012664794921875
0.0001430511474609375
0.000145721435546875
0.0001438140869140625
0.00015106201171875
0.000164794921875
0.0001800537109375
0.0001888275146484375
0.00019187927246093752
0.00019226074218750002
0.00019416809082031252
0.0002025604248046875
0.00021133422851562502
0.00021705627441406252
0.00020942687988281252
0.00018615722656250002
0.0001590728759765625
0.0001407623291015625
0.0001354217529296875
0.0001369476318359375
0.000133514404296875
0.00011978149414062501
9.994506835937501e-05
8.0108642578125e-05
5.7220458984375e-05
2.6702880859375e-05
-7.62939453125e-06
-3.54766845703125e-05
-5.4168701171875004e-05
-7.019042968750001e-05
-8.96453857421875e-05
-0.0001071929931640625
-0.00011901855468750001
-0.00012359619140625
-0.00012512207031250002
-0.00011901855468750001
-0.0001110076904296875
-0.00010757446289062501
-0.00010643005371093751
-0.0001049041748046875
-9.689331054687501e-05
-8.58306884765625e-05
-7.5531005859375e-05
-6.866455078125e-05
-6.3323974609375e-05
-5.7983398437500004e-05
-5.3787231445312505e-05
-4.9972534179687505e-05
-4.76837158203125e-05
-5.07354736328125e-05
-5.4168701171875004e-05
-5.7601928710937505e-05
-5.8746337890625e-05
-5.83648681640625e-05
-6.0272216796875e-05
-6.3323974609375e-05
-6.90460205078125e-05
-7.62939453125e-05
-7.972717285156251e-05
-8.087158203125001e-05
-8.23974609375e-05
-8.3160400390625e-05
-8.20159912109375e-05
-7.82012939453125e-05
-7.514953613281251e-05
-7.13348388671875e-05
-6.256103515625001e-05
-4.8065185546875005e-05
-3.814697265625e-05
-4.38690185546875e-05
-6.90460205078125e-05
-9.803771972656251e-05
-0.00011749267578125
-0.00012359619140625
-0.0001224517822265625
-0.0001224517822265625
-0.00012321472167968752
-0.000122833251953125
-0.0001201629638671875
-0.00011749267578125
-0.000113677978515625
-0.00010986328125
-0.00010757446289062501
-9.498596191406251e-05
-4.9972534179687505e-05
6.9427490234375e-05
0.0003143310546875
0.000701141357421875
0.001148223876953125
0.001418304443359375
0.0011966705322265627
0.0003765106201171875
-0.000728607177734375
-0.0015758514404296876
-0.0018260955810546877
-0.001560211181640625
-0.0011020660400390626
-0.0007026672363281251
-0.00042762756347656253
-0.00024642944335937503
-0.00013656616210937502
-7.0953369140625e-05
-2.5939941406250003e-05
5.3405761718750005e-06
1.9073486328125e-05
2.74658203125e-05
3.47137451171875e-05
4.3487548828125e-05
5.0354003906250004e-05
5.83648681640625e-05
6.561279296875e-05
7.209777832031251e-05
7.400512695312501e-05
7.591247558593751e-05
7.9345703125e-05
8.659362792968751e-05
9.3841552734375e-05
0.0001003265380859375
0.000106048583984375
0.0001129150390625
0.00012321472167968752
0.00013427734375
0.0001453399658203125
0.00015716552734375
0.000164031982421875
0.000168609619140625
0.0001743316650390625
0.00017700195312500002
0.0001781463623046875
0.000176239013671875
0.00017089843750000002
0.00016365051269531252
0.00015106201171875
0.0001373291015625
0.00012168884277343751
0.00010833740234375001
9.46044921875e-05
8.3160400390625e-05
7.62939453125e-05
6.866455078125e-05
5.340576171875e-05
2.8228759765625e-05
-1.1444091796875002e-06
-2.4032592773437503e-05
-4.2724609375000004e-05
-6.06536865234375e-05
-8.354187011718751e-05
-0.000102996826171875
-0.00011405944824218751
-0.00011520385742187501
-0.0001125335693359375
-0.00011024475097656251
-0.0001087188720703125
-0.00010833740234375001
-0.0001110076904296875
-0.0001117706298828125
-0.0001071929931640625
-9.613037109375001e-05
-8.659362792968751e-05
-7.66754150390625e-05
-7.209777832031251e-05
-6.9427490234375e-05
-6.52313232421875e-05
-6.0272216796875e-05
-5.2261352539062504e-05
-4.6157836914062505e-05
-4.8828125e-05
-5.7220458984375e-05
-6.1798095703125e-05
-5.83648681640625e-05
-5.3787231445312505e-05
-5.0354003906250004e-05
-5.6076049804687504e-05
-6.67572021484375e-05
-7.705688476562501e-05
-8.468627929687501e-05
-8.926391601562501e-05
-9.002685546875e-05
-8.81195068359375e-05
-8.697509765625e-05
-8.50677490234375e-05
-8.277893066406251e-05
-8.659362792968751e-05
-9.231567382812501e-05
-9.65118408203125e-05
-9.34600830078125e-05
-8.96453857421875e-05
-8.544921875000001e-05
-8.468627929687501e-05
-8.58306884765625e-05
-8.735656738281251e-05
-8.3160400390625e-05
-6.9427490234375e-05
-4.76837158203125e-05
-3.35693359375e-05
-3.5095214843750004e-05
-5.1116943359375e-05
-7.0953369140625e-05
-9.040832519531251e-05
-0.00010185241699218751
-0.0001087188720703125
-0.0001110076904296875
-0.0001117706298828125
-0.00011024475097656251
-0.00010566711425781251
-9.498596191406251e-05
-8.277893066406251e-05
-7.5531005859375e-05
-8.20159912109375e-05
-8.6212158203125e-05
-6.06536865234375e-05
3.96728515625e-05
0.00026550292968750003
0.0006389617919921875
0.0010997772216796875
0.00144500732421875
0.001361083984375
0.00066680908203125
-0.0004177093505859375
-0.0013683319091796877
-0.0017589569091796876
-0.0015762329101562502
-0.00112152099609375
-0.0006988525390625001
-0.0004116058349609375
-0.00023422241210937502
-0.000127410888671875
-6.59942626953125e-05
-3.16619873046875e-05
-1.6021728515625e-05
-1.02996826171875e-05
-4.1961669921875e-06
4.1961669921875e-06
1.678466796875e-05
3.01361083984375e-05
3.92913818359375e-05
4.2724609375000004e-05
4.8446655273437504e-05
5.7983398437500004e-05
6.98089599609375e-05
7.400512695312501e-05
7.05718994140625e-05
6.90460205078125e-05
7.476806640625e-05
8.20159912109375e-05
9.040832519531251e-05
9.689331054687501e-05
0.0001033782958984375
0.000110626220703125
0.00011978149414062501
0.0001316070556640625
0.00014495849609375
0.00015563964843750002
0.0001605987548828125
0.00016326904296875002
0.0001697540283203125
0.00017127990722656252
0.0001628875732421875
0.0001407623291015625
0.00011596679687500001
9.689331054687501e-05
8.544921875000001e-05
7.82012939453125e-05
7.36236572265625e-05
7.36236572265625e-05
7.74383544921875e-05
7.171630859375e-05
5.1879882812500005e-05
2.17437744140625e-05
-9.155273437500001e-06
-3.4332275390625e-05
-5.4931640625e-05
-7.514953613281251e-05
-9.72747802734375e-05
-0.00011520385742187501
-0.00012512207031250002
-0.000130462646484375
-0.00013275146484375002
-0.0001354217529296875
-0.0001373291015625
-0.0001338958740234375
-0.00011711120605468751
-9.689331054687501e-05
-8.468627929687501e-05
-8.50677490234375e-05
-9.1552734375e-05
-9.498596191406251e-05
-8.81195068359375e-05
-8.20159912109375e-05
-8.354187011718751e-05
-9.0789794921875e-05
-9.26971435546875e-05
-9.0789794921875e-05
-8.96453857421875e-05
-9.1552734375e-05
-8.354187011718751e-05
-6.75201416015625e-05
-6.06536865234375e-05
-7.66754150390625e-05
-0.0001033782958984375
-0.0001148223876953125
-0.00011024475097656251
-9.8419189453125e-05
-9.803771972656251e-05
-0.000106048583984375
-0.0001129150390625
-0.000116729736328125
-0.00011901855468750001
-0.00012092590332031251
-0.00011711120605468751
-0.0001071929931640625
-0.00010185241699218751
-0.0001071929931640625
-0.0001186370849609375
-0.0001201629638671875
-0.00010757446289062501
-9.57489013671875e-05
-9.498596191406251e-05
-0.0001003265380859375
-9.880065917968751e-05
-8.6212158203125e-05
-7.13348388671875e-05
-6.37054443359375e-05
-6.637573242187501e-05
-7.781982421875001e-05
-9.613037109375001e-05
-0.00011405944824218751
-0.00011978149414062501
-0.00011749267578125
-0.00010833740234375001
-0.000102996826171875
-0.0001068115234375
-0.000109100341796875
-9.8419189453125e-05
-8.544921875000001e-05
-8.659362792968751e-05
-0.0001003265380859375
-9.613037109375001e-05
-3.92913818359375e-05
0.0001110076904296875
0.0003963470458984375
0.00081939697265625
0.0012699127197265626
0.0014644622802734376
0.001097869873046875
0.0001758575439453125
-0.000885009765625
-0.0015762329101562502
-0.0016876220703125001
-0.001390838623046875
-0.00098114013671875
-0.0006378173828125001
-0.0003925323486328125
-0.00023574829101562502
-0.0001434326171875
-8.12530517578125e-05
-3.54766845703125e-05
-7.2479248046875005e-06
1.2588500976562501e-05
2.55584716796875e-05
3.2806396484375e-05
3.6621093750000005e-05
4.53948974609375e-05
6.52313232421875e-05
8.392333984375e-05
8.58306884765625e-05
7.324218750000001e-05
5.91278076171875e-05
5.4168701171875004e-05
6.14166259765625e-05
7.8582763671875e-05
9.72747802734375e-05
0.000110626220703125
0.000116729736328125
0.0001186370849609375
0.0001262664794921875
0.0001373291015625
0.0001506805419921875
0.0001667022705078125
0.00018463134765625002
0.0001987457275390625
0.00019798278808593752
0.00018463134765625002
0.00017471313476562502
0.00017471313476562502
0.000176239013671875
0.000164794921875
0.00014228820800781252
0.000121307373046875
0.000110626220703125
0.00011138916015625001
0.0001155853271484375
0.0001117706298828125
9.918212890625e-05
7.896423339843751e-05
5.645751953125e-05
3.54766845703125e-05
9.5367431640625e-06
-2.1362304687500002e-05
-5.07354736328125e-05
-6.90460205078125e-05
-8.20159912109375e-05
-9.95635986328125e-05
-0.00012054443359375
-0.00013580322265625
-0.0001392364501953125
-0.0001300811767578125
-0.000118255615234375
-0.00011138916015625001
-0.00010986328125
-0.0001117706298828125
-0.000109100341796875
-0.0001010894775390625
-8.58306884765625e-05
-7.171630859375e-05
-6.52313232421875e-05
-6.52313232421875e-05
-6.7901611328125e-05
-6.75201416015625e-05
-6.103515625e-05
-5.30242919921875e-05
-4.8065185546875005e-05
-4.76837158203125e-05
-5.2261352539062504e-05
-6.561279296875e-05
-8.087158203125001e-05
-8.96453857421875e-05
-8.926391601562501e-05
-8.544921875000001e-05
-8.392333984375e-05
-8.850097656250001e-05
-9.1552734375e-05
-9.26971435546875e-05
-9.0789794921875e-05
-9.1552734375e-05
-9.19342041015625e-05
-9.613037109375001e-05
-0.00010528564453125
-0.00010948181152343751
-0.00010261535644531251
-9.117126464843751e-05
-8.81195068359375e-05
-9.57489013671875e-05
-0.000102996826171875
-0.000101470947265625
-9.57489013671875e-05
-9.040832519531251e-05
-8.392333984375e-05
-7.171630859375e-05
-5.7601928710937505e-05
-4.8065185546875005e-05
-5.2642822265625e-05
-6.7901611328125e-05
-8.659362792968751e-05
-0.00010070800781250001
-0.000106048583984375
-0.000106048583984375
-0.00010643005371093751
-0.000102996826171875
-9.613037109375001e-05
-8.468627929687501e-05
-7.28607177734375e-05
-6.40869140625e-05
-6.40869140625e-05
-7.476806640625e-05
-7.0953369140625e-05
-1.52587890625e-05
0.00015029907226562502
0.00046539306640625
0.0009067535400390626
0.0013370513916015625
0.0014587402343750001
0.000998687744140625
1.678466796875e-05
-0.0010326385498046875
-0.001644134521484375
-0.0016551971435546876
-0.0012836456298828125
-0.0008502960205078125
-0.0005199432373046875
-0.000298309326171875
-0.00016021728515625
-7.705688476562501e-05
-2.3651123046875e-05
8.773803710937501e-06
2.6702880859375e-05
3.8909912109375004e-05
4.730224609375e-05
5.1879882812500005e-05
5.7601928710937505e-05
6.9427490234375e-05
8.0108642578125e-05
8.354187011718751e-05
8.04901123046875e-05
7.896423339843751e-05
8.468627929687501e-05
9.040832519531251e-05
9.57489013671875e-05
0.000109100341796875
0.00012664794921875
0.0001377105712890625
0.00013465881347656252
0.000128173828125
0.0001331329345703125
0.00015182495117187502
0.0001735687255859375
0.000185394287109375
0.00018463134765625002
0.00017852783203125002
0.00017852783203125002
0.0001857757568359375
0.000194549560546875
0.0001987457275390625
0.0001911163330078125
0.0001739501953125
0.0001514434814453125
0.00013084411621093752
0.00011787414550781251
0.00011138916015625001
0.00010528564453125
9.57489013671875e-05
8.20159912109375e-05
6.52313232421875e-05
4.8446655273437504e-05
2.8991699218750002e-05
6.484985351562501e-06
-1.678466796875e-05
-3.77655029296875e-05
-5.5694580078125005e-05
-7.171630859375e-05
-8.468627929687501e-05
-9.5367431640625e-05
-0.0001071929931640625
-0.00011749267578125
-0.00011901855468750001
-0.0001071929931640625
-9.231567382812501e-05
-8.087158203125001e-05
-7.43865966796875e-05
-6.866455078125e-05
-6.75201416015625e-05
-6.7901611328125e-05
-6.561279296875e-05
-5.9890747070312504e-05
-5.68389892578125e-05
-5.645751953125e-05
-5.7601928710937505e-05
-5.4168701171875004e-05
-4.9972534179687505e-05
-4.8446655273437504e-05
-5.2642822265625e-05
-5.9509277343750005e-05
-7.0953369140625e-05
-8.3160400390625e-05
-8.697509765625e-05
-8.087158203125001e-05
-7.43865966796875e-05
-7.28607177734375e-05
-7.781982421875001e-05
-8.58306884765625e-05
-8.926391601562501e-05
-8.850097656250001e-05
-8.659362792968751e-05
-9.040832519531251e-05
-9.613037109375001e-05
-9.918212890625e-05
-9.65118408203125e-05
-9.765625e-05
-0.00010452270507812501
-0.00011215209960937501
-0.00011520385742187501
-0.00010833740234375001
-0.0001033782958984375
-0.00010261535644531251
-0.00010452270507812501
-9.994506835937501e-05
-8.544921875000001e-05
-6.4849853515625e-05
-4.9591064453125e-05
-4.2724609375000004e-05
-4.4250488281250005e-05
-5.340576171875e-05
-7.171630859375e-05
-9.613037109375001e-05
-0.000113677978515625
-0.0001155853271484375
-0.00010566711425781251
-9.57489013671875e-05
-9.307861328125001e-05
-9.65118408203125e-05
-9.46044921875e-05
-8.468627929687501e-05
-7.62939453125e-05
-8.04901123046875e-05
-7.62939453125e-05
-1.9454956054687502e-05
0.0001415252685546875
0.0004413604736328125
0.00086212158203125
0.0012851715087890626
0.0014404296875
0.0010540008544921875
0.0001476287841796875
-0.0008682250976562501
-0.0015071868896484376
-0.0015842437744140625
-0.0012821197509765626
-0.0008953094482421876
-0.0005847930908203125
-0.00036087036132812503
-0.00020751953125000002
-0.00011138916015625001
-5.4931640625e-05
-2.47955322265625e-05
-1.1444091796875e-05
-1.9073486328125e-06
9.5367431640625e-06
1.71661376953125e-05
1.8310546875000003e-05
2.1362304687500002e-05
2.93731689453125e-05
4.1961669921875e-05
5.2642822265625e-05
5.45501708984375e-05
5.6076049804687504e-05
6.06536865234375e-05
6.40869140625e-05
6.637573242187501e-05
7.05718994140625e-05
8.12530517578125e-05
9.3841552734375e-05
0.0001041412353515625
0.00010986328125
0.00011596679687500001
0.0001255035400390625
0.00013656616210937502
0.00014839172363281252
0.0001583099365234375
0.000164031982421875
0.00016555786132812502
0.00016365051269531252
0.00016365051269531252
0.0001590728759765625
0.00014801025390625002
0.0001323699951171875
0.00011520385742187501
0.00010223388671875
9.0789794921875e-05
8.087158203125001e-05
7.28607177734375e-05
6.1798095703125e-05
4.69207763671875e-05
2.6702880859375e-05
4.1961669921875e-06
-1.5640258789062502e-05
-3.5095214843750004e-05
-5.45501708984375e-05
-7.62939453125e-05
-0.000102996826171875
-0.00012512207031250002
-0.00013885498046875
-0.0001430511474609375
-0.00014228820800781252
-0.00014228820800781252
-0.00014190673828125
-0.0001369476318359375
-0.0001239776611328125
-0.00011138916015625001
-0.00010986328125
-0.00011329650878906251
-0.00011329650878906251
-0.0001049041748046875
-8.96453857421875e-05
-7.896423339843751e-05
-7.28607177734375e-05
-7.324218750000001e-05
-7.705688476562501e-05
-7.9345703125e-05
-7.82012939453125e-05
-7.896423339843751e-05
-8.392333984375e-05
-8.544921875000001e-05
-8.277893066406251e-05
-8.697509765625e-05
-9.918212890625e-05
-0.00011024475097656251
-0.00011024475097656251
-0.00010261535644531251
-9.994506835937501e-05
-0.0001068115234375
-0.00011901855468750001
-0.0001285552978515625
-0.000125885009765625
-0.00011596679687500001
-0.000106048583984375
-0.00010452270507812501
-0.000109100341796875
-0.000113677978515625
-0.0001163482666015625
-0.0001201629638671875
-0.0001247406005859375
-0.00012359619140625
-0.000118255615234375
-0.000113677978515625
-0.00011138916015625001
-0.000110626220703125
-0.0001087188720703125
-9.880065917968751e-05
-8.7738037109375e-05
-7.8582763671875e-05
-7.324218750000001e-05
-6.866455078125e-05
-7.13348388671875e-05
-8.544921875000001e-05
-0.0001049041748046875
-0.0001148223876953125
-0.00011329650878906251
-0.00010528564453125
-0.0001041412353515625
-0.00010833740234375001
-0.00010986328125
-0.00010261535644531251
-8.96453857421875e-05
-8.392333984375e-05
-9.117126464843751e-05
-9.422302246093751e-05
-5.83648681640625e-05
6.103515625e-05
0.0003009796142578125
0.0006660461425781251
0.001093292236328125
0.00137939453125
0.001239013671875
0.0005481719970703126
-0.0004421234130859375
-0.0012592315673828126
-0.0015758514404296876
-0.0014190673828125
-0.001052093505859375
-0.00070343017578125
-0.0004482269287109375
-0.000278472900390625
-0.0001705169677734375
-9.994506835937501e-05
-5.14984130859375e-05
-1.983642578125e-05
-3.4332275390625e-06
7.2479248046875005e-06
1.4877319335937501e-05
2.6702880859375e-05
4.119873046875e-05
5.14984130859375e-05
5.5694580078125005e-05
5.4931640625e-05
5.30242919921875e-05
5.2642822265625e-05
5.3787231445312505e-05
5.9509277343750005e-05
6.828308105468751e-05
7.8582763671875e-05
9.040832519531251e-05
0.0001041412353515625
0.0001129150390625
0.000118255615234375
0.000122833251953125
0.000133514404296875
0.000152587890625
0.0001705169677734375
0.0001800537109375
0.00017890930175781252
0.00016937255859375002
0.00016632080078125
0.00017280578613281252
0.000179290771484375
0.0001758575439453125
0.00016136169433593752
0.0001438140869140625
0.00012969970703125
0.0001148223876953125
0.00010528564453125
0.0001003265380859375
9.5367431640625e-05
8.087158203125001e-05
5.9509277343750005e-05
3.5095214843750004e-05
1.2969970703125001e-05
-9.155273437500001e-06
-2.7847290039062503e-05
-4.15802001953125e-05
-5.6076049804687504e-05
-7.74383544921875e-05
-0.00010070800781250001
-0.00011405944824218751
-0.000116729736328125
-0.00011329650878906251
-0.000109100341796875
-0.0001068115234375
-0.00010375976562500001
-0.00010261535644531251
-9.95635986328125e-05
-9.498596191406251e-05
-8.88824462890625e-05
-8.0108642578125e-05
-7.209777832031251e-05
-6.866455078125e-05
-6.7138671875e-05
-6.637573242187501e-05
-6.828308105468751e-05
-7.324218750000001e-05
-7.591247558593751e-05
-7.591247558593751e-05
-7.13348388671875e-05
-6.561279296875e-05
-6.3323974609375e-05
-6.4849853515625e-05
-7.171630859375e-05
-8.20159912109375e-05
-9.26971435546875e-05
-9.422302246093751e-05
-9.040832519531251e-05
-8.96453857421875e-05
-9.231567382812501e-05
-9.803771972656251e-05
-0.00010223388671875
-0.00011024475097656251
-0.00011901855468750001
-0.000124359130859375
-0.00012168884277343751
-0.000113677978515625
-0.0001071929931640625
-0.0001049041748046875
-0.00010223388671875
-0.00010070800781250001
-0.00010375976562500001
-0.0001110076904296875
-0.0001163482666015625
-0.000121307373046875
-0.00012359619140625
-0.000121307373046875
-0.000113677978515625
-0.000101470947265625
-8.659362792968751e-05
-7.514953613281251e-05
-6.75201416015625e-05
-6.29425048828125e-05
-6.0272216796875e-05
-6.06536865234375e-05
-6.9427490234375e-05
-8.43048095703125e-05
-0.0001003265380859375
-0.00010986328125
-0.00011596679687500001
-0.0001155853271484375
-0.0001087188720703125
-9.918212890625e-05
-9.5367431640625e-05
-9.26971435546875e-05
-8.392333984375e-05
-7.781982421875001e-05
-8.3160400390625e-05
-8.88824462890625e-05
-5.645751953125e-05
6.0272216796875e-05
0.0003002166748046875
0.0006664276123046876
0.0010894775390625
0.00137176513671875
0.0012332916259765625
0.0005489349365234375
-0.00043525695800781253
-0.0012493133544921875
-0.00156402587890625
-0.0014102935791015627
-0.0010494232177734376
-0.0007102966308593751
-0.00045623779296875003
-0.0002777099609375
-0.00016021728515625
-8.735656738281251e-05
-4.15802001953125e-05
-1.6021728515625e-05
-1.1444091796875002e-06
9.918212890625e-06
1.678466796875e-05
2.0217895507812503e-05
2.5939941406250003e-05
3.39508056640625e-05
3.8909912109375004e-05
4.31060791015625e-05
4.8828125e-05
5.5694580078125005e-05
